Time,ECG,EMG,foot GSR,hand GSR,HR,marker,RESP
0.0,-0.055,0.293,7.3,6.527,70,11.59,51.02
0.06,0.007,0.321,7.297,6.522,70,11.57,51.01
0.13,-0.068,0.35,7.295,6.518,70,11.57,50.99
0.19,0.046,0.246,7.291,6.514,70,11.57,50.94
0.26,0.231,0.363,7.287,6.511,70,11.57,50.9
0.32,0.046,0.357,7.284,6.509,70,11.57,50.88
0.39,0.13,0.228,7.28,6.504,70,11.57,50.85
0.45,0.338,0.163,7.277,6.499,70,11.57,50.81
0.52,0.335,0.357,7.275,6.494,70,11.57,50.77
0.58,0.015,0.311,7.27,6.489,70,11.57,50.71
0.65,-0.009,0.401,7.267,6.486,69,11.57,50.66
0.71,0.003,0.344,7.264,6.482,69,11.57,50.56
0.77,-0.016,0.277,7.261,6.481,68,11.57,50.44
0.84,-0.027,0.324,7.259,6.479,68,11.57,50.41
0.9,-0.047,0.316,7.255,6.477,67,11.57,50.4
0.97,-0.046,0.293,7.254,6.474,66,11.57,50.39
1.03,-0.096,0.249,7.251,6.476,66,11.57,50.36
1.1,-0.126,0.246,7.249,6.476,65,11.57,50.36
1.16,0.236,0.285,7.249,6.474,65,11.57,50.41
1.23,-0.119,0.36,7.247,6.473,64,11.57,50.52
1.29,-0.054,0.308,7.246,6.471,64,11.57,50.64
1.35,0.028,0.228,7.246,6.472,63,11.57,50.89
1.42,0.225,0.3135,7.246,6.473,63,11.57,50.91
1.48,0.072,0.399,7.246,6.473,63,11.57,51.02
1.55,-0.185,0.318,7.246,6.474,63,11.57,51.14
1.61,-0.197,0.251,7.249,6.476,63,11.57,51.23
1.68,-0.194,0.272,7.249,6.477,63,11.57,51.27
1.74,-0.215,0.168,7.251,6.478,63,11.57,51.38
1.81,-0.21,0.168,7.251,6.478,63,11.57,51.51
1.87,-0.144,0.22100000000000003,7.252,6.478,63,11.57,51.67
1.94,-0.226,0.274,7.254,6.474,63,11.57,51.88
2.0,-0.216,0.163,7.254,6.464,63,11.57,51.99
2.06,0.186,0.295,7.254,6.454,63,11.57,52.06
2.13,-0.12,0.342,7.255,6.446,63,11.57,52.08
2.19,-0.026,0.277,7.255,6.435,63,11.57,52.02
2.26,0.142,0.197,7.254,6.434,69,11.57,51.98
2.32,0.208,0.318,7.254,6.426,69,11.57,51.92
2.39,-0.109,0.368,7.254,6.42,69,11.57,51.83
2.45,-0.138,0.329,7.254,6.412,69,11.57,51.77
2.52,-0.118,0.324,7.254,6.41,69,11.57,51.7
2.58,-0.116,0.303,7.251,6.406,69,11.56,51.59
2.65,-0.109,0.282,7.251,6.402,69,11.56,51.51
2.71,-0.099,0.347,7.249,6.4,69,11.56,51.44
2.77,-0.033,0.29,7.247,6.41,69,11.56,51.38
2.84,-0.099,0.383,7.246,6.42,69,11.56,51.32
2.9,-0.07,0.365,7.245,6.417,69,11.56,51.24
2.97,0.272,0.303,7.244,6.407,69,11.56,51.15
3.03,0.005,0.352,7.24,6.396,69,11.57,51.05
3.1,0.096,0.256,7.239,6.377,69,11.57,50.96
3.16,0.277,0.119,7.235,6.365,69,11.57,50.86
3.23,0.344,0.308,7.233,6.358,69,11.57,50.82
3.29,0.009,0.37,7.23,6.355,69,11.56,50.75
3.35,-0.033,0.329,7.228,6.361,66,11.56,50.75
3.42,-0.026,0.388,7.225,6.365,66,11.56,50.7
3.48,-0.034,0.171,7.222,6.372,66,11.56,50.56
3.55,-0.047,0.163,7.218,6.377,66,11.56,50.52
3.61,-0.06,0.225,7.215,6.381,66,11.56,50.5
3.68,0.001,0.298,7.212,6.393,66,11.56,50.48
3.74,-0.05,0.347,7.208,6.401,66,11.55,50.47
3.81,-0.069,0.399,7.202,6.424,66,11.55,50.46
3.87,0.296,0.295,7.203,6.425,66,11.55,50.46
3.94,0.001,0.383,7.2,6.436,66,11.55,50.45
4.0,0.176,0.37496296296296294,7.199,6.451,66,11.55,50.46
4.06,0.253,0.360037037037037,7.199,6.469,66,11.55,50.46
4.13,0.374,0.352,7.199,6.477,66,11.55,50.45
4.19,0.027,0.357,7.2,6.479,66,11.55,50.45
4.26,-0.098,0.308,7.203,6.475,65,11.55,50.43
4.32,-0.104,0.313,7.214,6.477,65,11.55,50.5
4.39,-0.123,0.228,7.215,6.478,65,11.55,50.51
4.45,-0.147,0.163,7.22,6.499,65,11.55,50.63
4.52,-0.153,0.161,7.229,6.52,65,11.55,50.77
4.58,-0.147,0.20500000000000002,7.239,6.545,65,11.55,50.88
4.65,-0.13,0.249,7.248,6.564,65,11.55,51.02
4.71,-0.195,0.238,7.258,6.569,65,11.55,51.15
4.77,0.214,0.205,7.268,6.574,65,11.55,51.26
4.84,-0.184,0.334,7.281,6.577,65,11.55,51.36
4.9,-0.067,0.2964074074074074,7.291,6.591,65,11.55,51.56
4.97,0.042,0.22659259259259262,7.301,6.606,64,11.55,51.81
5.03,0.238,0.189,7.311,6.623,64,11.55,51.99
5.1,0.048,0.316,7.321,6.638,64,11.55,52.1
5.16,-0.153,0.368,7.327,6.649,64,11.55,52.18
5.23,-0.132,0.119,7.335,6.659,64,11.55,52.26
5.29,-0.139,0.116,7.342,6.672,64,11.55,52.25
5.35,-0.141,0.363,7.349,6.679,64,11.55,52.24
5.42,-0.149,0.36,7.354,6.689,64,11.55,52.2
5.48,-0.073,0.313,7.359,6.692,64,11.55,52.15
5.55,-0.156,0.308,7.367,6.696,64,11.55,52.05
5.61,-0.137,0.3,7.368,6.697,64,11.55,52.04
5.68,0.234,0.326,7.371,6.703,64,11.55,51.98
5.74,-0.041,0.277,7.373,6.708,64,11.55,51.96
5.81,0.047,0.205,7.376,6.707,64,11.55,51.95
5.87,0.229,0.352,7.376,6.705,64,11.55,51.9
5.94,0.203,0.36,7.378,6.701,64,11.55,51.86
6.0,-0.043,0.363,7.378,6.697,64,11.55,51.83
6.06,-0.071,0.381,7.378,6.701,69,11.55,51.79
6.13,-0.058,0.365,7.378,6.706,69,11.55,51.68
6.19,-0.067,0.368,7.374,6.706,69,11.55,51.44
6.26,-0.067,0.277,7.372,6.705,69,11.55,51.43
6.32,-0.076,0.383,7.369,6.705,69,11.55,51.35
6.39,-0.007,0.29,7.366,6.703,69,11.55,51.27
6.45,-0.08,0.324,7.362,6.702,69,11.55,51.21
6.52,-0.096,0.396,7.357,6.7,69,11.55,51.13
6.58,0.276,0.303,7.353,6.697,69,11.55,51.04
6.65,-0.005,0.373,7.348,6.695,69,11.56,50.96
6.71,0.067,0.274,7.342,6.693,69,11.55,50.91
6.77,0.24,0.127,7.337,6.687,69,11.55,50.88
6.84,0.349,0.347,7.331,6.679,69,11.55,50.82
6.9,0.013,0.36,7.325,6.673,69,11.55,50.73
6.97,-0.065,0.391,7.318,6.671,65,11.57,50.7
7.03,-0.054,0.29,7.312,6.672,65,11.6,50.59
7.1,-0.06,0.352,7.307,6.669,65,11.6,50.42
7.16,-0.086,0.288,7.3,6.659,65,11.6,50.36
7.23,-0.081,0.22,7.295,6.65,65,11.61,50.32
7.29,-0.081,0.202,7.291,6.633,65,11.61,50.29
7.35,-0.093,0.277,7.287,6.632,65,11.62,50.26
7.42,-0.11,0.274,7.286,6.647,65,11.62,50.21
7.48,0.08,0.251,7.289,6.679,65,11.62,50.17
7.55,0.06,0.355,7.292,6.682,65,11.62,50.16
7.61,-0.038,0.37,7.3,6.683,65,11.62,50.16
7.68,0.053,0.254,7.324,6.711,65,11.62,50.18
7.74,0.234,0.228,7.325,6.713,65,11.62,50.19
7.81,0.164,0.324,7.341,6.733,65,11.62,50.26
7.87,-0.143,0.313,7.361,6.756,63,11.62,50.38
7.94,-0.166,0.244,7.384,6.792,63,11.62,50.52
8.0,-0.17,0.23,7.41,6.822,63,11.64,50.61
8.06,-0.183,0.308,7.439,6.846,63,11.62,50.71
8.13,-0.19,0.174,7.469,6.864,63,11.62,50.84
8.19,-0.179,0.228,7.5,6.882,63,11.62,50.99
8.26,-0.159,0.329,7.531,6.904,63,11.62,51.14
8.32,-0.223,0.168,7.563,6.937,63,11.62,51.27
8.39,0.202,0.23,7.598,6.985,63,11.64,51.4
8.45,-0.212,0.306,7.63,7.031,63,11.62,51.57
8.52,-0.082,0.21,7.663,7.069,63,11.62,51.76
8.58,0.02,0.256,7.693,7.087,67,11.62,51.9
8.65,0.221,0.122,7.726,7.113,67,11.62,52.05
8.71,0.048,0.37,7.755,7.151,67,11.62,52.2
8.77,-0.148,0.303,7.78,7.173,67,11.64,52.28
8.84,-0.155,0.205,7.804,7.203,67,11.64,52.28
8.9,-0.156,0.116,7.828,7.234,67,11.64,52.19
8.97,-0.159,0.277,7.849,7.263,67,11.62,52.12
9.03,-0.153,0.37,7.869,7.291,67,11.62,52.08
9.1,-0.163,0.29,7.888,7.315,67,11.64,52.0
9.16,-0.172,0.29,7.904,7.332,67,11.64,51.91
9.23,-0.154,0.342,7.917,7.342,67,11.64,51.81
9.29,0.218,0.339,7.93,7.343,67,11.62,51.72
9.35,-0.053,0.324,7.937,7.345,67,11.62,51.64
9.42,0.03,0.316,7.948,7.367,67,11.64,51.48
9.48,0.199,0.199,7.948,7.369,67,11.64,51.46
9.55,0.273,0.285,7.95,7.374,67,11.64,51.45
9.61,-0.056,0.357,7.948,7.382,67,11.64,51.41
9.68,-0.078,0.344,7.948,7.387,69,11.62,51.36
9.74,-0.061,0.311,7.944,7.391,69,11.62,51.24
9.81,-0.083,0.251,7.939,7.399,69,11.62,51.1
9.87,-0.078,0.256,7.931,7.409,69,11.62,51.01
9.94,-0.079,0.205,7.922,7.417,69,11.62,50.95
10.0,-0.007,0.171,7.912,7.424,69,11.62,50.9
10.06,-0.079,0.249,7.9,7.431,69,11.62,50.86
10.13,-0.085,0.378,7.889,7.434,69,11.62,50.81
10.19,0.271,0.303,7.876,7.429,69,11.62,50.76
10.26,0.005,0.269,7.861,7.425,69,11.62,50.72
10.32,0.083,0.35,7.849,7.422,69,11.62,50.7
10.39,0.258,0.122,7.834,7.421,69,11.62,50.65
10.45,0.35,0.223,7.819,7.417,69,11.62,50.64
10.52,0.004,0.381,7.804,7.409,69,11.62,50.61
10.58,-0.045,0.308,7.792,7.397,65,11.64,50.58
10.65,-0.049,0.3,7.777,7.382,65,11.64,50.5
10.71,-0.058,0.3,7.762,7.368,65,11.64,50.41
10.77,-0.07,0.233,7.75,7.354,65,11.64,50.38
10.84,-0.074,0.329,7.735,7.339,65,11.64,50.36
10.9,-0.045,0.313,7.721,7.325,65,11.64,50.36
10.97,-0.015,0.256,7.695,7.296,65,11.62,50.34
11.03,-0.084,0.295,7.693,7.295,65,11.62,50.34
11.1,0.149,0.269,7.681,7.281,65,11.62,50.34
11.16,0.062,0.376,7.668,7.265,65,11.62,50.34
11.23,0.022,0.339,7.655,7.249,65,11.62,50.34
11.29,0.11,0.259,7.643,7.23,65,11.62,50.33
11.35,0.293,0.168,7.631,7.212,65,11.62,50.34
11.42,0.201,0.339,7.619,7.198,65,11.62,50.32
11.48,-0.093,0.251,7.609,7.183,63,11.62,50.33
11.55,-0.112,0.244,7.598,7.168,63,11.62,50.39
11.61,-0.124,0.298,7.587,7.154,63,11.62,50.47
11.68,-0.132,0.274,7.577,7.139,63,11.62,50.57
11.74,-0.158,0.249,7.567,7.127,63,11.62,50.7
11.81,-0.157,0.199,7.557,7.113,63,11.62,50.83
11.87,-0.105,0.311,7.547,7.098,63,11.62,50.98
11.94,-0.184,0.199,7.537,7.087,63,11.62,51.11
12.0,-0.04,0.225,7.529,7.073,63,11.62,51.22
12.06,0.065,0.339,7.519,7.062,63,11.62,51.35
12.13,-0.087,0.272,7.511,7.05,63,11.62,51.5
12.19,-0.006,0.23,7.502,7.036,65,11.62,51.67
12.26,0.186,0.26454494382022475,7.495,7.024,65,11.62,51.82
12.32,0.133,0.318,7.487,7.009,65,11.62,51.95
12.39,-0.149,0.352,7.479,6.997,65,11.62,52.06
12.45,-0.161,0.122,7.471,6.986,65,11.62,52.15
12.52,-0.159,0.122,7.464,6.975,65,11.62,52.16
12.58,-0.152,0.277,7.456,6.965,65,11.62,52.15
12.65,-0.18,0.225,7.447,6.953,65,11.62,52.15
12.71,-0.101,0.241,7.44,6.943,65,11.62,52.12
12.77,-0.152,0.344,7.427,6.922,65,11.62,52.08
12.84,-0.187,0.401,7.426,6.919,65,11.62,52.08
12.9,-0.026,0.373,7.422,6.906,65,11.62,52.03
12.97,-0.06,0.373,7.414,6.885,65,11.62,51.94
13.03,0.003,0.29,7.408,6.87,65,11.62,51.87
13.1,0.18,0.233,7.402,6.862,65,11.64,51.8
13.16,0.289,0.244,7.395,6.85,65,11.65,51.75
13.23,-0.044,0.352,7.384,6.813,65,11.65,51.61
13.29,-0.094,0.251,7.383,6.811,65,11.65,51.6
13.35,-0.07,0.285,7.377,6.796,53,11.65,51.42
13.42,-0.072,0.347,7.372,6.781,53,11.65,51.21
13.48,-0.097,0.396,7.367,6.769,53,11.65,51.03
13.55,-0.09,0.352,7.362,6.755,53,11.65,50.9
13.61,-0.053,0.321,7.356,6.741,53,11.65,50.8
13.68,-0.054,0.373,7.35,6.731,53,11.65,50.71
13.74,-0.108,0.254,7.344,6.727,53,11.65,50.61
13.81,0.321,0.308,7.339,6.718,53,11.65,50.52
13.87,-0.105,0.357,7.334,6.707,53,11.65,50.46
13.94,0.03,0.311,7.33,6.694,53,11.64,50.39
14.0,0.148,0.269,7.325,6.681,53,11.65,50.33
14.06,0.351,0.249,7.32,6.672,53,11.65,50.3
14.13,0.124,0.326,7.315,6.663,53,11.64,50.21
14.19,-0.069,0.29,7.31,6.654,53,11.64,50.15
14.26,-0.054,0.311,7.305,6.647,53,11.64,50.09
14.32,-0.063,0.298,7.3,6.641,53,11.64,49.95
14.39,-0.077,0.295,7.295,6.636,53,11.64,49.88
14.45,-0.083,0.37,7.29,6.628,53,11.64,49.85
14.52,-0.072,0.29,7.285,6.622,53,11.65,49.82
14.58,-0.042,0.295,7.28,6.615,53,11.65,49.82
14.65,-0.058,0.254,7.272,6.6,53,11.65,49.8
14.71,0.326,0.274,7.271,6.599,53,11.65,49.8
14.77,0.265,0.272,7.267,6.591,53,11.65,49.79
14.84,-0.086,0.274,7.262,6.585,53,11.65,49.8
14.9,0.05,0.313,7.257,6.579,62,11.65,49.8
14.97,0.173,0.166,7.255,6.572,62,11.65,49.79
15.03,0.369,0.116,7.245,6.56,62,11.65,49.77
15.1,0.123,0.368,7.246,6.559,62,11.62,49.77
15.16,-0.064,0.29,7.242,6.554,62,11.62,49.77
15.23,-0.098,0.228,7.238,6.549,62,11.62,49.76
15.29,-0.104,0.228,7.234,6.542,62,11.62,49.64
15.35,-0.122,0.264,7.23,6.537,62,11.62,49.68
15.42,-0.14,0.202,7.225,6.533,62,11.62,49.8
15.48,-0.164,0.119,7.22,6.536,62,11.62,49.91
15.55,-0.111,0.202,7.214,6.575,62,11.61,50.14
15.61,-0.167,0.272,7.214,6.577,62,11.62,50.15
15.68,-0.198,0.272,7.21,6.596,62,11.64,50.28
15.74,0.187,0.282,7.207,6.624,62,11.64,50.39
15.81,-0.127,0.35,7.203,6.641,62,11.64,50.55
15.87,-0.075,0.163,7.199,6.65,62,11.62,50.67
15.94,0.078,0.21588636363636363,7.195,6.656,87,11.62,50.83
16.0,0.22,0.306,7.192,6.667,87,11.62,51.04
16.06,-0.09,0.383,7.188,6.668,87,11.65,51.2
16.13,-0.177,0.282,7.183,6.668,87,11.64,51.39
16.19,-0.149,0.332,7.18,6.657,87,11.64,51.51
16.26,-0.155,0.285,7.178,6.657,87,11.65,51.52
16.32,-0.161,0.274,7.174,6.651,87,11.65,51.51
16.39,-0.126,0.295,7.17,6.622,87,11.64,51.44
16.45,-0.071,0.329,7.167,6.585,87,11.61,51.37
16.52,-0.129,0.407,7.163,6.566,87,11.61,51.33
16.58,-0.045,0.272,7.158,6.559,87,11.62,51.24
16.65,0.206,0.347,7.156,6.558,87,11.62,51.11
16.71,-0.012,0.36,7.151,6.554,87,11.62,51.02
16.77,0.083,0.122,7.148,6.554,87,11.62,50.93
16.84,0.28,0.202,7.145,6.555,87,11.62,50.83
16.9,0.294,0.357,7.141,6.555,87,11.62,50.77
16.97,-0.038,0.35,7.138,6.552,87,11.62,50.68
17.03,-0.03,0.347,7.135,6.546,68,11.61,50.6
17.1,-0.041,0.344,7.131,6.539,68,11.61,50.47
17.16,-0.044,0.303,7.128,6.534,68,11.61,50.34
17.23,-0.066,0.383,7.125,6.529,68,11.61,50.29
17.29,-0.069,0.373,7.121,6.523,68,11.62,50.27
17.35,0.002,0.344,7.113,6.516,68,11.62,50.26
17.42,-0.057,0.352,7.113,6.516,68,11.62,50.26
17.48,-0.063,0.337,7.111,6.514,68,11.62,50.26
17.55,0.266,0.272,7.108,6.509,68,11.62,50.06
17.61,0.019,0.363,7.105,6.504,68,11.62,49.77
17.68,0.096,0.363,7.101,6.499,68,11.64,49.69
17.74,0.265,0.313,7.098,6.494,68,11.64,49.81
17.81,0.34,0.35,7.096,6.489,68,11.64,49.97
17.87,-0.01,0.329,7.093,6.488,68,11.64,50.14
17.94,-0.062,0.383,7.09,6.488,65,11.62,50.16
18.0,-0.052,0.339,7.087,6.487,65,11.61,50.07
18.06,-0.069,0.355,7.085,6.488,65,11.6,49.98
18.13,-0.091,0.388,7.081,6.487,65,11.6,50.02
18.19,-0.097,0.282,7.077,6.489,65,11.6,50.07
18.26,-0.052,0.223,7.076,6.494,65,11.6,50.11
18.32,-0.071,0.329,7.073,6.5,65,11.6,50.16
18.39,-0.139,0.274,7.072,6.508,65,11.6,50.18
18.45,0.262,0.267,7.073,6.517,65,11.6,50.2
18.52,-0.123,0.251,7.076,6.529,65,11.6,50.23
18.58,-0.03,0.23,7.082,6.541,65,11.6,50.25
18.65,0.072,0.15,7.091,6.56,64,11.6,50.31
18.71,0.25,0.192,7.103,6.582,64,11.6,50.45
18.77,-0.018,0.285,7.117,6.607,64,11.6,50.61
18.84,-0.196,0.308,7.157,6.669,64,11.6,50.94
18.9,-0.19,0.282,7.158,6.675,64,11.6,50.96
18.97,-0.207,0.29,7.185,6.708,64,11.6,51.05
19.03,-0.197,0.194,7.214,6.74,64,11.6,51.18
19.1,-0.19,0.192,7.244,6.775,64,11.6,51.31
19.16,-0.192,0.256,7.277,6.811,64,11.6,51.42
19.23,-0.264,0.207,7.315,6.852,64,11.6,51.49
19.29,-0.003,0.269,7.352,6.888,64,11.6,51.57
19.35,-0.094,0.352,7.425,6.962,64,11.6,51.76
19.42,-0.133,0.251,7.428,6.967,64,11.6,51.78
19.48,-0.04,0.158,7.465,7.001,69,11.6,51.93
19.55,0.156,0.06,7.501,7.034,69,11.6,52.04
19.61,0.066,0.344,7.537,7.062,69,11.6,52.13
19.68,-0.16,0.241,7.573,7.089,69,11.6,52.19
19.74,-0.172,0.238,7.605,7.121,69,11.6,52.21
19.81,-0.155,0.124,7.64,7.158,69,11.6,52.09
19.87,-0.165,0.171,7.671,7.194,69,11.6,51.96
19.94,-0.15,0.321,7.7,7.234,69,11.59,51.89
20.0,-0.146,0.288,7.752,7.305,69,11.59,51.77
20.06,-0.155,0.282,7.756,7.308,69,11.59,51.77
20.13,-0.134,0.326,7.78,7.338,69,11.59,51.73
20.19,0.232,0.321,7.802,7.361,69,11.59,51.66
20.26,-0.028,0.363,7.821,7.384,69,11.59,51.59
20.32,0.057,0.238,7.852,7.434,69,11.59,51.53
20.39,0.237,0.171,7.853,7.437,69,11.59,51.53
20.45,0.3,0.368,7.865,7.458,69,11.59,51.49
20.52,-0.015,0.308,7.875,7.472,69,11.57,51.4
20.58,-0.045,0.308,7.885,7.479,70,11.57,51.28
20.65,-0.038,0.233,7.891,7.484,70,11.59,51.08
20.71,-0.047,0.262,7.896,7.489,70,11.57,50.87
20.77,-0.055,0.334,7.898,7.501,70,11.59,50.74
20.84,-0.046,0.303,7.894,7.513,70,11.57,50.57
20.9,0.021,0.274,7.894,7.515,70,11.57,50.56
20.97,-0.072,0.368,7.891,7.51,70,11.59,50.51
21.03,0.039,0.337,7.885,7.501,70,11.6,50.46
21.1,0.222,0.35,7.877,7.5,70,11.6,50.42
21.16,0.033,0.295,7.867,7.5,70,11.6,50.38
21.23,0.132,0.233,7.855,7.517,70,11.6,50.36
21.29,0.293,0.332,7.843,7.555,70,11.6,50.36
21.35,0.247,0.337,7.829,7.565,70,11.6,50.36
21.42,0.003,0.352,7.816,7.553,70,11.6,50.36
21.48,-0.012,0.311,7.801,7.547,67,11.6,50.39
21.55,-0.003,0.324,7.787,7.548,67,11.6,50.34
21.61,-0.013,0.306,7.757,7.543,67,11.6,50.3
21.68,-0.032,0.355,7.755,7.545,67,11.6,50.3
21.74,-0.024,0.308,7.74,7.543,67,11.6,50.32
21.81,0.033,0.303,7.725,7.55,67,11.6,50.35
21.87,-0.054,0.298,7.712,7.521,67,11.6,50.38
21.94,-0.062,0.337,7.7,7.523,67,11.6,50.41
22.0,0.245,0.316,7.688,7.536,67,11.6,50.46
22.06,-0.016,0.324,7.679,7.538,67,11.6,50.55
22.13,0.053,0.3,7.671,7.536,67,11.6,50.71
22.19,0.216,0.321,7.665,7.54,67,11.6,50.88
22.26,0.266,0.215,7.66,7.54,67,11.6,51.03
22.32,-0.083,0.334,7.658,7.542,67,11.6,51.14
22.39,-0.119,0.334,7.658,7.543,65,11.6,51.27
22.45,-0.105,0.3,7.658,7.546,65,11.6,51.33
22.52,-0.127,0.321,7.659,7.545,65,11.6,51.37
22.58,-0.138,0.259,7.66,7.545,65,11.6,51.5
22.65,-0.077,0.295,7.665,7.551,65,11.6,51.8
22.71,-0.162,0.272,7.665,7.551,65,11.6,51.82
22.77,-0.073,0.272,7.667,7.558,65,11.6,51.98
22.84,0.215,0.272,7.668,7.573,65,11.6,52.19
22.9,-0.065,0.262,7.669,7.61,65,11.6,52.39
22.97,0.012,0.244,7.67,7.621,65,11.6,52.55
23.03,0.164,0.176,7.67,7.645,65,11.6,52.73
23.1,0.257,0.376,7.67,7.647,65,11.6,52.73
23.16,-0.05,0.306,7.672,7.633,65,11.6,52.7
23.23,-0.079,0.3,7.672,7.614,70,11.6,52.67
23.29,-0.084,0.311,7.672,7.623,70,11.6,52.45
23.35,-0.086,0.313,7.67,7.634,70,11.6,52.28
23.42,-0.08,0.326,7.672,7.654,70,11.6,52.11
23.48,-0.042,0.326,7.676,7.745,70,11.6,51.89
23.55,-0.045,0.388,7.677,7.75,70,11.6,51.88
23.61,-0.076,0.391,7.683,7.781,70,11.6,51.78
23.68,0.289,0.249,7.688,7.803,70,11.6,51.65
23.74,-0.038,0.363,7.7,7.817,70,11.6,51.5
23.81,0.056,0.35,7.712,7.827,70,11.6,51.41
23.87,0.169,0.337,7.744,7.843,70,11.6,50.87
23.94,0.365,0.391,7.743,7.844,70,11.6,50.85
24.0,0.215,0.383,7.761,7.852,70,11.61,50.87
24.06,-0.009,0.394,7.778,7.859,68,11.61,51.0
24.13,-0.005,0.386,7.798,7.867,68,11.61,51.12
24.19,-0.017,0.339,7.818,7.874,68,11.6,51.14
24.26,-0.035,0.342,7.838,7.875,68,11.6,51.1
24.32,-0.043,0.324,7.857,7.874,68,11.55,51.12
24.39,0.004,0.293,7.893,7.882,68,11.57,51.15
24.45,-0.031,0.288,7.894,7.884,68,11.6,51.15
24.52,0.334,0.254,7.909,7.894,68,11.6,51.15
24.58,0.277,0.251,7.922,7.904,68,11.6,51.17
24.65,-0.07,0.293,7.936,7.919,68,11.6,51.16
24.71,0.051,0.142,7.947,7.931,67,11.55,51.18
24.77,0.181,0.23,7.957,7.942,67,11.57,51.23
24.84,0.37,0.347,7.971,7.953,67,11.61,51.25
24.9,0.108,0.337,7.971,7.955,67,11.65,51.25
24.97,-0.073,0.324,7.976,7.952,67,11.65,51.25
25.03,-0.079,0.277,7.981,7.957,67,11.6,51.29
25.1,-0.088,0.212,7.985,7.967,67,11.59,51.28
25.16,-0.133,0.326,7.987,7.986,67,11.6,51.31
25.23,-0.138,0.298,7.987,8.004,67,11.62,51.42
25.29,-0.127,0.236,7.99,8.016,67,11.61,51.5
25.35,-0.116,0.192,7.99,8.032,67,11.61,51.61
25.42,-0.194,0.28,7.993,8.055,67,11.62,51.69
25.48,0.155,0.22,7.996,8.086,67,11.62,51.75
25.55,-0.143,0.409,8.003,8.116,67,11.62,51.8
25.61,-0.073,0.306,8.012,8.147,67,11.62,51.86
25.68,0.024,0.267,8.026,8.181,90,11.64,51.97
25.74,0.22,0.212,8.043,8.21,90,11.65,52.13
25.81,0.093,0.277,8.063,8.232,90,11.67,52.29
25.87,-0.15,0.28,8.088,8.244,90,11.66,52.45
25.94,-0.138,0.337,8.115,8.265,90,11.65,52.59
26.0,-0.138,0.259,8.145,8.294,90,11.65,52.67
26.06,-0.139,0.316,8.177,8.319,90,11.65,52.79
26.13,-0.136,0.29,8.212,8.345,90,11.65,52.96
26.19,-0.082,0.163,8.244,8.373,90,11.64,53.06
26.26,-0.154,0.256,8.279,8.395,90,11.62,53.07
26.32,0.106,0.293,8.312,8.415,90,11.62,52.98
26.39,0.136,0.293,8.342,8.441,90,11.62,52.85
26.45,-0.06,0.324,8.375,8.477,90,11.62,52.68
26.52,0.017,0.308,8.402,8.51,74,11.62,52.57
26.58,0.186,0.207,8.427,8.532,74,11.62,52.53
26.65,0.263,0.339,8.472,8.548,74,11.62,52.36
26.71,-0.075,0.355,8.473,8.548,74,11.62,52.36
26.77,-0.104,0.342,8.492,8.548,74,11.64,52.34
26.84,-0.084,0.355,8.512,8.539,74,11.64,52.24
26.9,-0.113,0.249,8.535,8.534,74,11.62,52.08
26.97,-0.111,0.202,8.554,8.523,74,11.62,51.99
27.03,-0.106,0.288,8.567,8.521,74,11.62,51.92
27.1,-0.041,0.28,8.578,8.508,74,11.62,51.89
27.16,-0.078,0.363,8.586,8.489,74,11.64,51.91
27.23,-0.121,0.313,8.591,8.473,74,11.65,51.99
27.29,0.316,0.298,8.594,8.467,74,11.64,52.07
27.35,-0.031,0.332,8.591,8.45,74,11.61,52.12
27.42,0.064,0.326,8.587,8.442,74,11.61,52.15
27.48,0.174,0.207,8.578,8.437,74,11.62,52.14
27.55,0.378,0.21,8.571,8.427,74,11.62,52.18
27.61,0.087,0.339,8.564,8.423,74,11.62,52.17
27.68,-0.056,0.282,8.534,8.382,60,11.62,52.01
27.74,-0.048,0.316,8.533,8.379,60,11.62,52.0
27.81,-0.06,0.326,8.512,8.35,60,11.62,51.87
27.87,-0.075,0.329,8.489,8.322,60,11.62,51.74
27.94,-0.083,0.37,8.464,8.293,60,11.64,51.66
28.0,-0.079,0.238,8.438,8.262,60,11.65,51.6
28.06,-0.008,0.326,8.413,8.228,60,11.64,51.58
28.13,-0.075,0.298,8.366,8.171,60,11.62,51.49
28.19,-0.089,0.36,8.361,8.167,60,11.62,51.48
28.26,0.264,0.293,8.338,8.14,60,11.62,51.4
28.32,0.006,0.318,8.312,8.113,60,11.62,51.37
28.39,0.081,0.288,8.289,8.086,60,11.62,51.31
28.45,0.223,0.137,8.266,8.056,60,11.64,51.22
28.52,0.348,0.249,8.242,8.029,60,11.64,51.15
28.58,0.018,0.326,8.218,8.001,60,11.62,51.09
28.65,-0.067,0.334,8.196,7.976,63,11.62,51.05
28.71,-0.05,0.285,8.174,7.951,63,11.61,50.96
28.77,-0.076,0.316,8.154,7.924,63,11.61,50.87
28.84,-0.085,0.259,8.133,7.899,63,11.61,50.84
28.9,-0.086,0.303,8.112,7.876,63,11.6,50.84
28.97,-0.11,0.298,8.092,7.853,63,11.6,50.86
29.03,-0.059,0.337,8.07,7.831,63,11.59,50.83
29.1,-0.12,0.262,8.052,7.808,63,11.59,50.83
29.16,-0.168,0.334,8.033,7.788,63,11.61,50.85
29.23,0.201,0.207,8.016,7.769,63,11.62,50.92
29.29,-0.108,0.36,7.998,7.749,63,11.62,51.18
29.35,-0.036,0.251,7.981,7.729,63,11.62,51.47
29.42,0.089,0.244,7.966,7.71,61,11.64,51.76
29.48,0.232,0.298,7.951,7.691,61,11.62,52.01
29.55,-0.095,0.332,7.934,7.674,61,11.61,52.24
29.61,-0.201,0.363,7.921,7.657,61,11.59,52.46
29.68,-0.198,0.176,7.906,7.64,61,11.57,52.62
29.74,-0.206,0.174,7.894,7.623,61,11.57,52.71
29.81,-0.214,0.321,7.879,7.608,61,11.59,52.9
29.87,-0.215,0.311,7.864,7.593,61,11.59,53.11
29.94,-0.144,0.28,7.852,7.583,61,11.6,53.29
30.0,-0.222,0.274,7.827,7.558,61,11.6,53.57
30.06,-0.23,0.334,7.827,7.557,61,11.6,53.59
30.13,0.176,0.332,7.815,7.544,61,11.6,53.67
30.19,-0.143,0.368,7.803,7.531,61,11.59,53.75
30.26,-0.057,0.212,7.793,7.518,61,11.55,53.77
30.32,0.092,0.3,7.78,7.504,67,11.53,53.75
30.39,0.212,0.295,7.771,7.492,67,11.53,53.71
30.45,-0.087,0.357,7.76,7.48,67,11.6,53.6
30.52,-0.149,0.352,7.748,7.467,67,11.64,53.44
30.58,-0.146,0.298,7.738,7.457,67,11.64,53.2
30.65,-0.143,0.329,7.728,7.45,67,11.66,52.95
30.71,-0.137,0.285,7.718,7.449,67,11.66,52.75
30.77,-0.128,0.365,7.708,7.435,67,11.65,52.61
30.84,-0.051,0.269,7.698,7.419,67,11.61,52.52
30.9,-0.137,0.295,7.69,7.41,67,11.57,52.34
30.97,-0.067,0.256,7.681,7.407,67,11.55,52.16
31.03,0.21,0.329,7.671,7.4,67,11.54,52.06
31.1,-0.017,0.321,7.661,7.39,67,11.53,51.98
31.16,0.075,0.308,7.654,7.376,67,11.54,51.95
31.23,0.252,0.244,7.646,7.358,67,11.55,51.92
31.29,0.285,0.306,7.636,7.34,67,11.55,51.85
31.35,-0.038,0.36,7.629,7.328,67,11.55,51.82
31.42,-0.074,0.373,7.62,7.317,67,11.54,51.84
31.48,-0.066,0.256,7.613,7.308,67,11.53,51.79
31.55,-0.087,0.303,7.604,7.302,67,11.55,51.7
31.61,-0.091,0.3,7.597,7.297,67,11.55,51.64
31.68,-0.079,0.205,7.589,7.292,67,11.55,51.66
31.74,-0.025,0.344,7.582,7.272,67,11.55,51.73
31.81,-0.102,0.347,7.573,7.266,67,11.55,51.73
31.87,-0.021,0.29,7.559,7.253,67,11.55,51.68
31.94,0.226,0.334,7.558,7.254,67,11.56,51.68
32.0,0.012,0.324,7.551,7.247,67,11.56,51.67
32.06,0.098,0.251,7.544,7.232,67,11.56,51.64
32.13,0.28,0.264,7.537,7.219,67,11.56,51.61
32.19,0.289,0.3,7.531,7.207,67,11.57,51.59
32.26,-0.039,0.337,7.517,7.186,67,11.56,51.6
32.32,-0.061,0.365,7.517,7.185,67,11.55,51.6
32.39,-0.074,0.29,7.511,7.183,67,11.55,51.55
32.45,-0.115,0.311,7.505,7.182,67,11.55,51.5
32.52,-0.12,0.274,7.499,7.186,67,11.55,51.54
32.58,-0.11,0.192,7.491,7.198,67,11.56,51.86
32.65,-0.064,0.347,7.485,7.204,67,11.56,52.18
32.71,-0.176,0.316,7.477,7.203,67,11.56,52.39
32.77,-0.169,0.184,7.471,7.197,67,11.55,52.49
32.84,0.173,0.14,7.464,7.199,67,11.55,52.67
32.9,-0.113,0.083,7.457,7.2,67,11.55,52.73
32.97,-0.046,0.07,7.451,7.193,67,11.55,52.68
33.03,0.114,0.052,7.445,7.179,65,11.54,52.63
33.1,-0.072,0.378,7.439,7.171,65,11.55,52.64
33.16,-0.162,0.373,7.435,7.163,65,11.55,52.75
33.23,-0.18,0.264,7.429,7.154,65,11.56,52.77
33.29,-0.161,0.238,7.423,7.144,65,11.57,52.71
33.35,-0.178,0.21,7.415,7.141,65,11.57,52.67
33.42,-0.155,0.155,7.404,7.134,65,11.6,52.75
33.48,-0.173,0.148,7.403,7.133,65,11.6,52.77
33.55,-0.178,0.288,7.395,7.13,65,11.61,52.97
33.61,0.247,0.244,7.389,7.13,65,11.61,53.09
33.68,-0.045,0.233,7.383,7.128,65,11.6,52.94
33.74,0.04,0.288,7.37,7.111,65,11.57,52.37
33.81,0.211,0.344,7.369,7.109,65,11.56,52.34
33.87,0.067,0.368,7.364,7.094,65,11.57,52.13
33.94,-0.01,0.365,7.359,7.09,75,11.57,52.06
34.0,-0.012,0.355,7.354,7.089,75,11.57,52.23
34.06,-0.003,0.337,7.349,7.079,75,11.59,52.32
34.13,-0.002,0.352,7.342,7.072,75,11.56,52.13
34.19,0.038,0.339,7.332,7.065,75,11.55,52.03
34.26,0.039,0.381,7.333,7.065,75,11.55,52.04
34.32,0.286,0.288,7.33,7.063,75,11.6,52.32
34.39,0.19564878048780487,0.293,7.327,7.059,75,11.61,52.44
34.45,0.097,0.376,7.322,7.059,75,11.64,52.42
34.52,0.087,0.316,7.32,7.075,75,11.62,52.36
34.58,0.196,0.311,7.315,7.101,75,11.62,52.37
34.65,0.25268681747269894,0.352,7.307,7.127,75,11.61,52.46
34.71,0.278,0.35,7.307,7.127,75,11.61,52.45
34.77,0.025,0.326,7.304,7.118,75,11.62,52.4
34.84,0.016,0.339,7.3,7.102,80,11.62,52.29
34.9,0.012,0.186,7.297,7.07,80,11.5,52.01
34.97,0.017,0.174,7.292,7.026,80,11.5,51.75
35.03,0.018,0.262,7.29,6.994,80,11.53,51.65
35.1,-0.05,0.334,7.285,6.98,80,11.53,51.48
35.16,0.186,0.256,7.282,6.98,80,11.48,51.46
35.23,0.073,0.357,7.28,6.979,80,11.45,51.39
35.29,0.06,0.368,7.277,6.978,80,11.48,51.37
35.35,0.144,0.194,7.276,6.978,80,11.46,51.37
35.42,0.356,0.207,7.276,6.979,80,11.43,51.39
35.48,0.242,0.238,7.279,6.98,80,11.44,51.3
35.55,-0.013,0.28,7.282,6.981,80,11.46,51.28
35.61,-0.002,0.285,7.29,6.986,71,11.45,51.39
35.68,-0.002,0.246,7.298,6.994,71,11.42,51.34
35.74,0.059,0.192,7.31,7.001,71,11.42,51.14
35.81,-0.02,0.282,7.325,7.003,71,11.43,50.98
35.87,-0.062,0.259,7.339,7.004,71,11.45,50.96
35.94,0.31,0.212,7.358,7.016,71,11.48,51.05
36.0,-0.007,0.365,7.378,7.074,71,11.48,51.16
36.06,0.095,0.288,7.402,7.153,71,11.48,51.28
36.13,0.325,0.205,7.427,7.215,71,11.49,51.31
36.19,0.33,0.202,7.454,7.251,71,11.49,51.38
36.26,0.05,0.321,7.484,7.26,71,11.49,51.52
36.32,-0.015,0.306,7.513,7.249,80,11.46,51.66
36.39,0.0,0.171,7.542,7.228,80,11.46,51.55
36.45,0.011,0.28,7.59,7.2,80,11.46,51.2
36.52,-0.034,0.324,7.594,7.199,80,11.48,51.19
36.58,-0.086,0.316,7.615,7.194,80,11.45,51.09
36.65,0.305,0.298,7.625,7.189,80,11.55,51.05
36.71,-0.065,0.318,7.632,7.181,80,11.6,51.0
36.77,0.064,0.35,7.63,7.178,80,11.61,50.91
36.84,0.212,0.137,7.63,7.173,80,11.59,50.72
36.9,0.375,0.282,7.63,7.168,80,11.55,50.62
36.97,0.073,0.36,7.626,7.163,80,11.56,50.5
37.03,-0.026,0.295,7.614,7.158,83,11.57,50.4
37.1,-0.02,0.357,7.599,7.153,83,11.57,50.32
37.16,-0.014,0.29,7.583,7.148,83,11.57,50.19
37.23,-0.058,0.264,7.569,7.145,83,11.59,50.08
37.29,0.002,0.285,7.558,7.142,83,11.6,50.06
37.35,-0.085,0.376,7.542,7.142,83,11.64,50.05
37.42,-0.145,0.329,7.523,7.137,83,11.65,50.04
37.48,0.236,0.274,7.508,7.141,83,11.65,50.13
37.55,-0.05,0.29,7.494,7.152,83,11.65,50.48
37.61,-0.011,0.285,7.48,7.18,83,11.65,50.9
37.68,0.105,0.272,7.47,7.241,72,11.64,51.27
37.74,0.201,0.236,7.462,7.305,72,11.64,51.58
37.81,-0.117,0.394,7.455,7.346,72,11.62,51.85
37.87,-0.186,0.355,7.466,7.382,72,11.62,52.42
37.94,-0.191,0.311,7.468,7.382,72,11.62,52.44
38.0,-0.232,0.342,7.475,7.392,72,11.62,52.65
38.06,-0.233,0.298,7.48,7.396,72,11.62,52.85
38.13,-0.179,0.313,7.479,7.39,72,11.62,52.98
38.19,-0.251,0.249,7.472,7.384,72,11.62,53.22
38.26,-0.268,0.313,7.462,7.368,72,11.62,53.38
38.32,0.17,0.244,7.451,7.349,72,11.62,53.44
38.39,-0.157,0.246,7.44,7.337,72,11.6,53.42
38.45,-0.071,0.246,7.429,7.327,72,11.6,53.36
38.52,0.023,0.174,7.415,7.31,70,11.6,53.26
38.58,0.169,0.288,7.405,7.291,70,11.59,53.18
38.65,-0.091,0.368,7.397,7.267,70,11.57,53.05
38.71,-0.173,0.396,7.392,7.232,70,11.57,52.75
38.77,-0.148,0.321,7.393,7.229,70,11.57,52.73
38.84,-0.138,0.35,7.393,7.214,70,11.57,52.55
38.9,-0.078,0.277,7.393,7.203,70,11.61,52.44
38.97,-0.058,0.28,7.393,7.191,70,11.61,52.36
39.03,-0.101,0.342,7.393,7.18,70,11.61,52.3
39.1,-0.138,0.339,7.392,7.173,70,11.59,52.22
39.16,0.29,0.269,7.389,7.169,70,11.56,52.14
39.23,-0.045,0.342,7.386,7.157,70,11.57,52.01
39.29,0.073,0.274,7.386,7.156,70,11.56,52.01
39.35,0.202,0.324,7.382,7.152,70,11.57,51.96
39.42,0.363,0.179,7.379,7.148,70,11.57,51.9
39.48,0.073,0.339,7.378,7.147,70,11.57,51.84
39.55,-0.021,0.298,7.376,7.146,71,11.57,51.87
39.61,-0.031,0.282,7.376,7.139,71,11.57,51.87
39.68,-0.031,0.277,7.376,7.135,71,11.57,51.76
39.74,-0.047,0.199,7.373,7.131,71,11.56,51.66
39.81,-0.047,0.236,7.373,7.13,71,11.56,51.64
39.87,-0.005,0.119,7.373,7.13,71,11.55,51.63
39.94,-0.016,0.401,7.373,7.128,71,11.53,51.6
40.0,-0.06,0.334,7.374,7.127,71,11.53,51.57
40.06,-0.014,0.264,7.379,7.128,71,11.53,51.51
40.13,0.02,0.267,7.382,7.133,71,11.53,51.46
40.19,0.078,0.368,7.387,7.138,71,11.54,51.44
40.26,0.205,0.122,7.393,7.146,71,11.55,51.49
40.32,0.375,0.119,7.399,7.165,71,11.55,51.5
40.39,0.157,0.363,7.414,7.212,71,11.55,51.62
40.45,-0.005,0.256,7.416,7.215,71,11.53,51.63
40.52,-0.011,0.254,7.426,7.249,50,11.53,51.51
40.58,-0.018,0.127,7.445,7.293,50,11.53,51.36
40.65,-0.043,0.163,7.467,7.336,50,11.53,51.27
40.71,-0.041,0.28,7.495,7.371,50,11.53,51.2
40.77,-0.017,0.342,7.533,7.423,50,11.51,51.24
40.84,-0.107,0.332,7.534,7.425,50,11.51,51.24
40.9,-0.119,0.225,7.548,7.445,50,11.51,51.26
40.97,0.183,0.28,7.562,7.466,50,11.51,51.56
41.03,-0.081,0.324,7.574,7.486,50,11.5,51.99
41.1,-0.029,0.168,7.587,7.504,50,11.51,52.35
41.16,0.115,0.236,7.597,7.52,50,11.51,52.54
41.23,0.187,0.3,7.612,7.537,50,11.53,52.68
41.29,-0.158,0.347,7.639,7.555,50,11.51,52.75
41.35,-0.212,0.344,7.682,7.571,50,11.51,52.81
41.42,-0.227,0.318,7.736,7.586,50,11.51,52.87
41.48,-0.229,0.316,7.764,7.597,50,11.51,52.89
41.55,-0.18,0.202,7.776,7.604,50,11.51,52.99
41.61,-0.268,0.378,7.778,7.615,50,11.51,53.19
41.68,-0.269,0.311,7.778,7.615,50,11.51,53.2
41.74,0.117,0.295,7.782,7.619,50,11.51,53.29
41.81,-0.162,0.293,7.789,7.623,50,11.51,53.32
41.87,-0.071,0.313,7.799,7.628,50,11.51,53.31
41.94,0.086,0.238,7.815,7.631,50,11.51,53.29
42.0,0.142,0.236,7.822,7.635,50,11.51,53.23
42.06,-0.136,0.376,7.83,7.64,50,11.51,53.11
42.13,-0.154,0.321,7.832,7.642,50,11.51,52.95
42.19,-0.125,0.161,7.831,7.642,50,11.51,52.77
42.26,-0.117,0.373,7.827,7.642,50,11.51,52.67
42.32,-0.037,0.308,7.822,7.642,50,11.51,52.64
42.39,-0.132,0.23,7.821,7.639,50,11.51,52.45
42.45,0.02,0.313,7.823,7.635,50,11.51,52.27
42.52,0.17,0.272,7.823,7.633,50,11.51,52.13
42.58,0.007,0.093,7.824,7.628,50,11.51,52.02
42.65,0.109,0.22,7.829,7.623,50,11.51,51.89
42.71,0.192,0.352,7.838,7.618,50,11.51,51.81
42.77,0.141,0.355,7.845,7.611,50,11.51,51.75
42.84,-0.045,0.368,7.857,7.604,50,11.51,51.7
42.9,-0.051,0.262,7.87,7.597,50,11.51,51.66
42.97,-0.055,0.238,7.888,7.589,50,11.51,51.52
43.03,-0.015,0.218,7.918,7.572,50,11.51,51.59
43.1,-0.081,0.337,7.92,7.573,50,11.51,51.59
43.16,-0.123,0.298,7.931,7.564,50,11.51,51.57
43.23,0.266,0.36,7.945,7.556,50,11.51,51.55
43.29,-0.061,0.337,7.958,7.547,50,11.51,51.54
43.35,0.029,0.246,7.971,7.537,50,11.51,51.58
43.42,0.174,0.065,7.977,7.529,50,11.51,51.56
43.48,0.297,0.166,7.986,7.519,50,11.5,51.53
43.55,-0.019,0.352,7.997,7.512,50,11.5,51.56
43.61,-0.085,0.347,8.006,7.502,81,11.51,51.59
43.68,-0.099,0.373,8.007,7.496,81,11.51,51.56
43.74,-0.115,0.293,8.006,7.489,81,11.51,51.41
43.81,-0.101,0.282,8.005,7.484,81,11.51,51.37
43.87,-0.206,0.35,8.003,7.479,81,11.5,51.39
43.94,-0.218,0.311,8.001,7.478,81,11.5,51.41
44.0,0.112,0.288,7.997,7.478,81,11.5,51.55
44.06,-0.165,0.285,8.003,7.478,81,11.5,51.77
44.13,0.024,0.298,8.023,7.479,81,11.5,52.01
44.19,0.104,0.308,8.043,7.481,79,11.5,52.19
44.26,0.052,0.368,8.058,7.486,79,11.5,52.4
44.32,-0.259,0.282,8.082,7.491,79,11.5,52.58
44.39,-0.298,0.37,8.102,7.496,79,11.5,52.64
44.45,-0.294,0.339,8.139,7.51,79,11.5,52.7
44.52,-0.254,0.244,8.139,7.511,79,11.5,52.71
44.58,-0.339,0.072,8.104,7.519,79,11.5,52.85
44.65,-0.365,0.132,8.1,7.532,79,11.5,53.14
44.71,0.054,0.308,8.114,7.551,79,11.5,53.46
44.77,-0.274,0.285,8.093,7.567,79,11.5,53.83
44.84,-0.196,0.293,8.075,7.577,79,11.5,54.27
44.9,-0.035,0.396,8.095,7.589,83,11.5,54.78
44.97,-0.007,0.334,8.096,7.598,83,11.5,54.77978102189781
45.03,-0.294,0.36,8.054,7.61,83,11.5,54.77956204379562
45.1,-0.323,0.326,8.028,7.618,83,11.5,54.77934306569343
45.16,-0.314,0.179,8.026,7.62,83,11.5,54.77912408759124
45.23,-0.262,0.298,8.027,7.627,83,11.5,54.77890510948905
45.29,-0.349,0.311,8.046,7.624,83,11.5,54.77868613138686
45.35,-0.322,0.316,8.058,7.628,83,11.5,54.77846715328467
45.42,0.063,0.148,8.058,7.63,83,11.5,54.77824817518248
45.48,-0.251,0.197,8.045,7.635,83,11.5,54.77802919708029
45.55,-0.16,0.202,8.018,7.637,83,11.5,54.777810218978104
45.61,-0.042,0.293,7.974,7.637,85,11.5,54.777591240875914
45.68,-0.083,0.293,7.967,7.633,85,11.5,54.777372262773724
45.74,-0.286,0.388,7.959,7.624,85,11.5,54.777153284671535
45.81,-0.281,0.3,7.939,7.608,85,11.5,54.776934306569345
45.87,-0.243,0.332,7.935,7.601,85,11.5,54.776715328467155
45.94,-0.247,0.37,7.957,7.604,85,11.5,54.776496350364965
46.0,-0.317,0.35,7.961,7.604,85,11.5,54.776277372262776
46.06,0.121,0.194,8.001,7.593,85,11.5,54.776058394160586
46.13,-0.254,0.386,8.03,7.581,85,11.5,54.775839416058396
46.19,-0.182,0.363,8.063,7.577,85,11.5,54.775620437956206
46.26,-0.061,0.192,8.086,7.576,87,11.5,54.77540145985402
46.32,0.138,0.251,8.106,7.581,87,11.5,54.77518248175183
46.39,-0.119,0.308,8.131,7.593,87,11.5,54.77496350364964
46.45,-0.262,0.365,8.153,7.612,87,11.5,54.77474452554745
46.52,-0.255,0.321,8.176,7.634,87,11.5,54.77452554744526
46.58,-0.196,0.334,8.196,7.659,87,11.5,54.77430656934307
46.65,-0.268,0.357,8.213,7.682,87,11.5,54.77408759124088
46.71,-0.314,0.342,8.229,7.7,87,11.5,54.77386861313869
46.77,0.187,0.326,8.242,7.716,87,11.5,54.7736496350365
46.84,-0.259,0.438,8.257,7.74,87,11.5,54.77343065693431
46.9,-0.11,0.368,8.272,7.773,87,11.5,54.77321167883212
46.97,0.113,0.306,8.292,7.804,86,11.5,54.77299270072993
47.03,0.346,0.448,8.315,7.822,86,11.5,54.77277372262774
47.1,0.062,0.223,8.335,7.839,86,11.5,54.77255474452555
47.16,0.047,0.342,8.356,7.854,86,11.5,54.77233576642336
47.23,0.131,0.205,8.378,7.873,86,11.5,54.77211678832117
47.29,0.139,0.168,8.4,7.89,86,11.5,54.77189781021898
47.35,0.135,0.313,8.422,7.906,86,11.5,54.77167883211679
47.42,0.13230769230769232,0.293,8.448,7.925,86,11.5,54.7714598540146
47.48,0.131,0.28,8.467,7.957,86,11.5,54.77124087591241
47.55,0.238,0.207,8.491,8.018,86,11.5,54.77102189781022
47.61,0.381,0.176,8.493,8.023,86,11.5,54.77080291970803
47.68,0.28049512987012987,0.233,8.501,8.054,86,11.5,54.77058394160584
47.74,0.165,0.22,8.51,8.083,86,11.5,54.77036496350365
47.81,0.146,0.189,8.519,8.088,86,11.5,54.77014598540146
47.87,0.146,0.192,8.526,8.098,86,11.5,54.76992700729927
47.94,0.093,0.168,8.532,8.108,86,11.5,54.76970802919708
48.0,0.079,0.174,8.535,8.122,86,11.5,54.769489051094894
48.06,0.10600342465753425,0.223,8.539,8.133,86,11.5,54.769270072992704
48.13,0.162,0.238,8.538,8.145,86,11.5,54.769051094890514
48.19,0.247,0.249,8.538,8.145,86,11.5,54.768832116788325
48.26,0.373,0.316,8.556,8.149,86,11.5,54.768613138686135
48.32,0.328,0.313,8.553,8.15,86,11.5,54.768394160583945
48.39,0.087,0.368,8.548,8.15,86,11.5,54.768175182481755
48.45,0.075,0.352,8.543,8.149,86,11.5,54.767956204379566
48.52,0.05,0.355,8.54,8.145,86,11.5,54.767737226277376
48.58,0.093,0.35,8.515,8.135,86,11.5,54.767518248175186
48.65,-0.02,0.381,8.514,8.134,86,11.5,54.767299270072996
48.71,-0.013,0.337,8.499,8.13,86,11.5,54.76708029197081
48.77,0.017806649118791484,0.326,8.485,8.127,86,11.5,54.76686131386862
48.84,0.071,0.313,8.471,8.12,86,11.5,54.76664233576643
48.9,0.147,0.313,8.458,8.113,86,11.5,54.76642335766424
48.97,0.337,0.316,8.443,8.104,86,11.5,54.76620437956205
49.03,0.292,0.3,8.432,8.096,86,11.5,54.76598540145986
49.1,-0.014,0.37,8.421,8.086,86,11.5,54.76576642335767
49.16,-0.017,0.342,8.406,8.076,86,11.5,54.76554744525548
49.23,-0.032,0.28,8.391,8.066,86,11.5,54.76532846715329
49.29,-0.062,0.37,8.376,8.055,86,11.5,54.7651094890511
49.35,-0.081,0.373,8.359,8.04,85,11.5,54.7648905109489
49.42,-0.096,0.339,8.343,8.028,85,11.5,54.76467153284671
49.48,-0.06618871866295264,0.303,8.326,8.013,85,11.49,54.76445255474452
49.55,-0.007,0.329,8.31,7.998,85,11.5,54.76423357664233
49.61,0.072,0.274,8.281,7.97,85,11.5,54.76401459854014
49.68,0.252,0.13,8.278,7.968,84,11.5,54.76379562043795
49.74,0.332,0.313,8.263,7.953,84,11.5,54.763576642335764
49.81,-0.014,0.288,8.246,7.939,84,11.5,54.763357664233574
49.87,-0.064,0.306,8.229,7.924,84,11.49,54.763138686131384
49.94,-0.048,0.274,8.212,7.909,84,11.49,54.762919708029195
50.0,-0.015,0.277,8.197,7.894,84,11.5,54.762700729927005
50.06,-0.115,0.295,8.18,7.879,84,11.49,54.762481751824815
50.13,0.231,0.337,8.166,7.866,84,11.49,54.762262773722625
50.19,0.255,0.352,8.152,7.854,84,11.49,54.762043795620436
50.26,-0.014,0.334,8.137,7.84,84,11.49,54.761824817518246
50.32,0.074,0.23,8.122,7.827,84,11.49,54.761605839416056
50.39,0.265,0.122,8.105,7.813,83,11.49,54.761386861313866
50.45,0.215,0.228,8.073,7.786,83,11.49,54.76116788321168
50.52,-0.121,0.376,8.07,7.784,83,11.49,54.76094890510949
50.58,-0.135,0.376,8.053,7.771,82,11.49,54.7607299270073
50.65,-0.115,0.215,8.035,7.757,82,11.49,54.76051094890511
50.71,-0.121,0.246,8.02,7.742,82,11.49,54.76029197080292
50.77,-0.216,0.067,8.001,7.73,82,11.49,54.76007299270073
50.84,0.178,0.106,7.967,7.705,81,11.49,54.75985401459854
50.9,-0.06,0.233,7.964,7.704,81,11.49,54.75963503649635
50.97,0.014,0.306,7.946,7.7,81,11.5,54.75941605839416
51.03,0.081,0.303,7.93,7.691,80,11.5,54.75919708029197
51.1,0.226,0.313,7.913,7.683,80,11.5,54.75897810218978
51.16,-0.047,0.368,7.894,7.684,80,11.5,54.75875912408759
51.23,-0.216,0.383,7.857,7.675,80,11.5,54.7585401459854
51.29,-0.2,0.342,7.777,7.649,80,11.48,54.75832116788321
51.35,-0.206,0.334,7.774,7.648,80,11.48,54.75810218978102
51.42,-0.163,0.36,7.751,7.636,80,11.48,54.75788321167883
51.48,-0.255,0.339,7.725,7.624,80,11.48,54.75766423357664
51.55,-0.23,0.43,7.706,7.611,80,11.48,54.75744525547445
51.61,0.241,0.383,7.689,7.601,80,11.49,54.75722627737226
51.68,-0.142,0.368,7.673,7.597,80,11.49,54.75700729927007
51.74,-0.044,0.363,7.661,7.598,80,11.5,54.75678832116788
51.81,0.15,0.432,7.653,7.599,82,11.5,54.75656934306569
51.87,0.099,0.422,7.655,7.596,82,11.49,54.7563503649635
51.94,-0.209,0.4585,7.701,7.587,82,11.49,54.75613138686131
52.0,-0.215,0.495,7.844,7.576,82,11.49,54.75591240875912
52.06,-0.21,0.48515625,8.059,7.561,82,11.49,54.75569343065693
52.13,-0.23,0.46349999999999997,8.252,7.548,82,11.5,54.75547445255474
52.19,-0.237,0.44184375,8.315,7.538,82,11.5,54.755255474452554
52.26,-0.241,0.432,8.323,7.529,82,11.5,54.755036496350364
52.32,-0.234,0.479,8.284,7.516,82,11.51,54.754817518248174
52.39,-0.174,0.46974848942598185,8.234,7.505,82,11.51,54.754598540145984
52.45,-0.248,0.443,8.219,7.494,82,11.5,54.754379562043795
52.52,-0.222,0.3,8.206,7.486,82,11.5,54.754160583941605
52.58,0.26,0.365,8.177,7.474,82,11.5,54.753941605839415
52.65,-0.129,0.4534342105263158,8.159,7.461,82,11.5,54.753722627737226
52.71,-0.046,0.508,8.134,7.45,82,11.49,54.753503649635036
52.77,0.124,0.352,8.11,7.437,62,11.49,54.753284671532846
52.84,0.146,0.422,8.084,7.427,62,11.5,54.753065693430656
52.9,-0.181,0.438,8.059,7.415,62,11.5,54.75284671532847
52.97,-0.209,0.218,8.043,7.405,62,11.53,54.75262773722628
53.03,-0.206,0.062,8.029,7.394,62,11.53,54.75240875912409
53.1,-0.214,0.383,8.026,7.383,62,11.53,54.7521897810219
53.16,-0.222,0.215,8.031,7.373,62,11.53,54.75197080291971
53.23,-0.219,0.264,8.056,7.363,62,11.53,54.75175182481752
53.29,-0.185,0.295,8.096,7.353,62,11.53,54.75153284671533
53.35,-0.164,0.225,8.124,7.343,62,11.53,54.75131386861314
53.42,-0.16,0.14,8.143,7.333,62,11.53,54.75109489051095
53.48,-0.211,0.179,8.156,7.323,62,11.53,54.75087591240876
53.55,0.092,0.274,8.166,7.315,62,11.51,54.75065693430657
53.61,0.049,0.342,8.199,7.297,62,11.5,54.75043795620438
53.68,-0.069,0.43,8.202,7.296,62,11.5,54.75021897810219
53.74,0.038,0.357,8.259,7.288,59,11.51,54.75
53.81,0.22,0.295,8.341,7.28,59,11.51,54.6
53.87,0.098,0.176,8.391,7.271,59,11.5,54.44
53.94,-0.132,0.316,8.416,7.262,59,11.5,54.24
54.0,-0.134,0.316,8.437,7.255,59,11.5,54.28
54.06,-0.136,0.264,8.453,7.247,59,11.5,54.23
54.13,-0.145,0.378,8.462,7.239,59,11.51,54.02
54.19,-0.146,0.199,8.468,7.231,59,11.51,53.82
54.26,-0.141,0.184,8.47,7.216,59,11.51,53.45
54.32,-0.136,0.285,8.47,7.215,59,11.51,53.43
54.39,-0.086,0.29,8.464,7.208,59,11.51,53.27
54.45,-0.125,0.179,8.456,7.2,59,11.5,53.1
54.52,-0.156,0.212,8.451,7.194,59,11.5,52.95
54.58,0.299,0.282,8.446,7.188,59,11.5,52.84
54.65,-0.087,0.272,8.457,7.183,59,11.5,52.76
54.71,0.0,0.28,8.484,7.178,59,11.5,52.65
54.77,0.14,0.313,8.514,7.173,59,11.5,52.55
54.84,0.287,0.308,8.538,7.168,59,11.5,52.47
54.9,0.003,0.3,8.564,7.165,59,11.5,52.35
54.97,-0.108,0.388,8.602,7.162,59,11.5,52.22
55.03,-0.102,0.3,8.646,7.162,59,11.5,52.08
55.1,-0.122,0.339,8.683,7.159,59,11.5,51.89
55.16,-0.126,0.337,8.709,7.159,59,11.5,51.77
55.23,-0.126,0.22,8.729,7.157,59,11.5,51.72
55.29,-0.122,0.166,8.752,7.157,59,11.51,51.68
55.35,-0.082,0.218,8.783,7.156,59,11.53,51.63
55.42,-0.077,0.199,8.871,7.155,59,11.53,51.54
55.48,-0.125,0.321,8.876,7.155,59,11.51,51.53
55.55,0.328,0.236,8.924,7.155,59,11.5,51.49
55.61,-0.113,0.259,8.96,7.155,59,11.5,51.43
55.68,0.007,0.174,8.998,7.155,59,11.51,51.4
55.74,0.132,0.116,9.035,7.155,59,11.5,51.36
55.81,0.305,0.212,9.063,7.155,59,11.5,51.33
55.87,0.071,0.368,9.093,7.152,59,11.5,51.29
55.94,-0.088,0.318,9.117,7.151,61,11.5,51.27
56.0,-0.074,0.132,9.139,7.15,61,11.5,51.24
56.06,-0.081,0.238,9.161,7.151,61,11.5,51.15
56.13,-0.096,0.236,9.178,7.155,61,11.5,51.1
56.19,-0.099,0.207,9.192,7.155,61,11.5,51.09
56.26,-0.097,0.233,9.194,7.152,61,11.5,51.09
56.32,-0.068,0.259,9.197,7.148,61,11.5,51.1
56.39,-0.052,0.274,9.211,7.146,61,11.5,51.09
56.45,-0.103,0.324,9.244,7.143,61,11.5,51.08
56.52,0.336,0.233,9.276,7.138,61,11.5,51.09
56.58,-0.088,0.378,9.293,7.136,61,11.5,51.1
56.65,0.034,0.316,9.308,7.132,61,11.5,51.12
56.71,0.155,0.23,9.322,7.128,61,11.5,51.13
56.77,0.329,0.262,9.332,7.125,61,11.5,51.14
56.84,0.12,0.337,9.337,7.121,61,11.5,51.13
56.9,-0.061,0.388,9.329,7.116,62,11.5,51.12
56.97,-0.053,0.332,9.315,7.111,62,11.5,51.12
57.03,-0.06,0.262,9.292,7.106,62,11.5,51.02
57.1,-0.07,0.251,9.266,7.102,62,11.5,50.97
57.16,-0.074,0.285,9.244,7.097,62,11.5,50.97
57.23,-0.075,0.256,9.221,7.093,62,11.5,50.97
57.29,-0.028,0.391,9.195,7.087,62,11.5,50.98
57.35,-0.055,0.357,9.158,7.081,62,11.5,50.96
57.42,-0.087,0.337,9.132,7.076,62,11.5,50.96
57.48,0.313,0.3,9.122,7.071,62,11.5,50.96
57.55,-0.021,0.303,9.117,7.066,62,11.5,50.97
57.61,0.062,0.352,9.108,7.06,62,11.5,51.0
57.68,0.204,0.321,9.102,7.054,62,11.5,51.01
57.74,0.342,0.254,9.096,7.047,62,11.5,51.02
57.81,0.047,0.381,9.09,7.041,62,11.5,51.01
57.87,-0.05,0.28,9.088,7.036,63,11.5,51.02
57.94,-0.046,0.254,9.099,7.029,63,11.5,51.01
58.0,-0.065,0.318,9.098,7.024,63,11.5,50.94
58.06,-0.089,0.339,9.092,7.016,63,11.5,50.94
58.13,-0.103,0.324,9.079,7.011,63,11.5,50.98
58.19,-0.094,0.246,9.057,7.004,63,11.5,51.05
58.26,-0.078,0.259,9.034,6.997,63,11.5,51.15
58.32,-0.149,0.174,9.008,6.991,63,11.5,51.25
58.39,0.266,0.197,8.984,6.985,63,11.5,51.37
58.45,-0.146,0.383,8.969,6.979,63,11.5,51.5
58.52,-0.054,0.28,8.963,6.973,63,11.5,51.67
58.58,0.049,0.267,8.954,6.967,63,11.5,51.84
58.65,0.017,0.251,8.943,6.96,63,11.5,52.02
58.71,-0.058,0.259,8.93,6.954,64,11.5,52.18
58.77,-0.168,0.174,8.913,6.949,64,11.5,52.31
58.84,-0.165,0.254,8.897,6.942,64,11.5,52.43
58.9,-0.172,0.28,8.88,6.937,64,11.5,52.47
58.97,-0.179,0.256,8.847,6.925,64,11.5,52.54
59.03,-0.163,0.326,8.846,6.924,64,11.5,52.55
59.1,-0.168,0.329,8.828,6.919,64,11.5,52.54
59.16,-0.198,0.344,8.814,6.914,64,11.5,52.49
59.23,0.265,0.264,8.794,6.908,64,11.5,52.41
59.29,-0.175,0.365,8.769,6.902,64,11.5,52.3
59.35,-0.05,0.368,8.722,6.893,64,11.5,52.14
59.42,0.075,0.332,8.72,6.892,64,11.5,52.13
59.48,0.25,0.282,8.708,6.887,64,11.5,52.11
59.55,0.01,0.355,8.697,6.882,64,11.5,52.05
59.61,-0.135,0.373,8.695,6.877,72,11.5,51.96
59.68,-0.123,0.368,8.715,6.872,72,11.5,51.87
59.74,-0.127,0.401,8.744,6.867,72,11.5,51.72
59.81,-0.136,0.376,8.768,6.86,72,11.5,51.6
59.87,-0.135,0.249,8.776,6.857,72,11.5,51.53
59.94,-0.074,0.254,8.776,6.852,72,11.5,51.46
60.0,-0.151,0.396,8.769,6.847,72,11.5,51.41
60.06,-0.099,0.324,8.758,6.842,72,11.5,51.36
60.13,0.203,0.383,8.739,6.837,72,11.5,51.35
60.19,-0.057,0.386,8.718,6.832,72,11.5,51.34
60.26,0.18,0.207,8.696,6.827,72,11.5,51.32
60.32,0.256,0.207,8.68,6.822,72,11.5,51.31
60.39,0.202,0.332,8.678,6.817,72,11.5,51.3
60.45,-0.096,0.378,8.674,6.812,72,11.5,51.27
60.52,-0.111,0.388,8.668,6.807,68,11.5,51.24
60.58,-0.102,0.282,8.655,6.798,68,11.5,51.1
60.65,-0.114,0.197,8.655,6.797,68,11.5,51.09
60.71,-0.122,0.207,8.646,6.793,68,11.5,51.06
60.77,-0.103,0.28,8.637,6.788,68,11.5,51.03
60.84,-0.068,0.329,8.63,6.783,68,11.5,51.03
60.9,0.188,0.347,8.625,6.778,68,11.5,51.03
60.97,0.302,0.35,8.621,6.775,68,11.5,51.01
61.03,-0.022,0.386,8.617,6.77,68,11.5,51.01
61.1,-0.013,0.43,8.611,6.765,72,11.5,51.02
61.16,0.092,0.288,8.603,6.76,72,11.5,51.02
61.23,0.281,0.337,8.581,6.753,72,11.5,51.08
61.29,0.137,0.357,8.58,6.75,72,11.49,51.08
61.35,-0.086,0.466,8.568,6.747,72,11.49,51.09
61.42,-0.088,0.4365,8.559,6.743,72,11.5,51.0
61.48,-0.09,0.407,8.553,6.738,72,11.5,50.87
61.55,-0.111,0.474,8.548,6.733,72,11.5,50.88
61.61,-0.116,0.378,8.543,6.73,72,11.5,50.99
61.68,-0.058,0.407,8.538,6.725,72,11.5,51.25
61.74,-0.142,0.464,8.533,6.723,72,11.5,51.6
61.81,-0.135,0.332,8.525,6.718,72,11.5,51.77
61.87,0.239,0.446,8.52,6.715,72,11.5,51.88
61.94,-0.073,0.508,8.514,6.711,72,11.5,51.99
62.0,-0.005,0.404,8.512,6.708,72,11.5,52.1
62.06,0.167,0.391,8.514,6.705,72,11.5,52.3
62.13,0.186,0.352,8.514,6.701,72,11.5,52.6
62.19,-0.147,0.35,8.517,6.698,72,11.5,52.89
62.26,-0.18,0.368,8.515,6.695,73,11.5,53.26
62.32,-0.177,0.394,8.513,6.692,73,11.49,53.6
62.39,-0.2,0.417,8.508,6.69,73,11.5,53.89
62.45,-0.171,0.412,8.499,6.687,73,11.49,54.15
62.52,-0.19,0.396,8.488,6.685,73,11.49,54.36
62.58,-0.25,0.412,8.474,6.682,73,11.49,54.52
62.65,0.226,0.342,8.464,6.681,74,11.5,54.65
62.71,-0.234,0.3760441176470588,8.454,6.677,74,11.49,54.72
62.77,-0.119,0.422,8.448,6.675,74,11.49,54.78
62.84,0.01,0.44,8.441,6.671,74,11.49,54.78272727272727
62.9,0.19,0.43504629629629626,8.432,6.668,74,11.49,54.78545454545455
62.97,-0.088,0.42,8.426,6.665,74,11.49,54.78818181818182
63.03,-0.235,0.311,8.418,6.661,74,11.5,54.79090909090909
63.1,-0.219,0.365,8.416,6.657,74,11.51,54.79363636363637
63.16,-0.227,0.505,8.411,6.655,74,11.51,54.79636363636364
63.23,-0.236,0.381,8.411,6.651,74,11.51,54.799090909090914
63.29,-0.235,0.44,8.415,6.648,74,11.51,54.801818181818184
63.35,-0.18,0.456,8.415,6.645,74,11.5,54.804545454545455
63.42,-0.266,0.394,8.417,6.641,74,11.5,54.80727272727273
63.48,-0.148,0.417,8.421,6.638,74,11.5,54.81
63.55,-0.128,0.404,8.426,6.635,74,11.5,54.80875
63.61,-0.171,0.456,8.437,6.631,74,11.5,54.807500000000005
63.68,-0.079,0.479,8.446,6.628,68,11.5,54.80625
63.74,0.109,0.342,8.456,6.625,68,11.5,54.805
63.81,0.079,0.326,8.465,6.619,68,11.5,54.80375
63.87,-0.231,0.233,8.465,6.618,68,11.5,54.802499999999995
63.94,-0.241,0.22,8.461,6.614,68,11.5,54.801249999999996
64.0,-0.233,0.184,8.453,6.611,68,11.5,54.8
64.06,-0.246,0.155,8.444,6.608,68,11.49,54.77
64.13,-0.252,0.145,8.428,6.606,68,11.49,54.75
64.19,-0.247,0.347,8.413,6.601,68,11.49,54.69
64.26,-0.175,0.342,8.401,6.599,68,11.49,54.56
64.32,-0.229,0.324,8.387,6.595,68,11.5,54.38
64.39,-0.241,0.316,8.379,6.591,68,11.5,54.12
64.45,0.213,0.306,8.374,6.586,68,11.49,53.91
64.52,-0.119,0.308,8.365,6.579,68,11.5,53.74
64.58,-0.045,0.355,8.355,6.572,68,11.5,53.61
64.65,0.123,0.352,8.346,6.565,90,11.5,53.49
64.71,0.22,0.37,8.341,6.557,90,11.5,53.53
64.77,-0.105,0.332,8.334,6.555,90,11.5,53.59
64.84,-0.168,0.324,8.329,6.551,90,11.5,53.82
64.9,-0.163,0.453,8.321,6.545,90,11.5,53.96
64.97,-0.184,0.339,8.318,6.543,90,11.5,54.03
65.03,-0.188,0.135,8.312,6.54,90,11.51,54.13
65.1,-0.166,0.171,8.307,6.543,90,11.53,54.28
65.16,-0.133,0.13,8.302,6.54,90,11.53,54.68
65.23,-0.208,0.14,8.298,6.539,90,11.51,54.68079365079365
65.29,0.156,0.262,8.294,6.534,90,11.51,54.6815873015873
65.35,-0.106,0.342,8.291,6.529,90,11.51,54.68238095238095
65.42,-0.078,0.233,8.287,6.524,90,11.51,54.683174603174606
65.48,0.189,0.067,8.284,6.522,90,11.51,54.68396825396825
65.55,0.25,0.065,8.279,6.514,90,11.51,54.684761904761906
65.61,0.055,0.306,8.273,6.509,90,11.5,54.68555555555555
65.68,-0.148,0.057,8.268,6.504,68,11.5,54.686349206349206
65.74,-0.137,0.272,8.268,6.499,68,11.5,54.68714285714286
65.81,-0.128,0.401,8.278,6.489,68,11.51,54.687936507936506
65.87,-0.136,0.212,8.278,6.488,68,11.51,54.68873015873016
65.94,-0.108,0.2665,8.283,6.484,68,11.51,54.68952380952381
66.0,-0.09,0.321,8.286,6.478,68,11.5,54.69031746031746
66.06,-0.153,0.321,8.286,6.474,68,11.5,54.69111111111111
66.13,0.269,0.303,8.284,6.469,68,11.51,54.69190476190476
66.19,-0.125,0.407,8.281,6.464,68,11.51,54.69269841269841
66.26,-0.023,0.29,8.277,6.459,68,11.51,54.693492063492066
66.32,0.246,0.171,8.274,6.457,68,11.51,54.69428571428571
66.39,0.294,0.168,8.269,6.452,68,11.51,54.695079365079366
66.45,0.074,0.047,8.267,6.447,68,11.51,54.69587301587302
66.52,-0.1,0.127,8.262,6.445,71,11.51,54.696666666666665
66.58,-0.085,0.07,8.257,6.441,71,11.51,54.69746031746032
66.65,-0.084,0.135,8.248,6.435,71,11.51,54.698253968253965
66.71,-0.098,0.272,8.248,6.435,71,11.51,54.69904761904762
66.77,-0.036,0.246,8.244,6.432,71,11.51,54.69984126984127
66.84,-0.104,0.124,8.241,6.431,71,11.51,54.70063492063492
66.9,-0.134,0.357,8.238,6.429,71,11.51,54.70142857142857
66.97,0.259,0.233,8.238,6.429,71,11.51,54.702222222222225
67.03,-0.044,0.35,8.238,6.429,71,11.51,54.70301587301587
67.1,0.159,0.132,8.242,6.43,71,11.51,54.703809523809525
67.16,0.234,0.119,8.249,6.431,71,11.51,54.70460317460317
67.23,0.293,0.249,8.258,6.432,71,11.51,54.705396825396825
67.29,-0.027,0.35,8.267,6.436,71,11.51,54.70619047619048
67.35,-0.081,0.29,8.281,6.44,73,11.51,54.706984126984125
67.42,-0.069,0.334,8.313,6.448,73,11.51,54.70777777777778
67.48,-0.074,0.262,8.315,6.449,73,11.51,54.70857142857143
67.55,-0.087,0.259,8.333,6.452,73,11.51,54.70936507936508
67.61,-0.036,0.256,8.353,6.457,73,11.51,54.71015873015873
67.68,-0.067,0.256,8.373,6.464,73,11.51,54.71095238095238
67.74,-0.108,0.272,8.395,6.469,73,11.51,54.71174603174603
67.81,0.303,0.264,8.417,6.474,73,11.51,54.712539682539685
67.87,-0.062,0.334,8.44,6.482,73,11.51,54.71333333333333
67.94,0.039,0.212,8.461,6.487,73,11.51,54.714126984126985
68.0,0.171,0.07,8.482,6.492,73,11.51,54.71492063492064
68.06,0.321,0.264,8.502,6.497,73,11.51,54.715714285714284
68.13,0.023,0.357,8.519,6.501,73,11.51,54.71650793650794
68.19,-0.075,0.254,8.537,6.504,70,11.51,54.717301587301584
68.26,-0.064,0.357,8.554,6.508,70,11.51,54.71809523809524
68.32,-0.075,0.357,8.569,6.512,70,11.51,54.71888888888889
68.39,-0.094,0.407,8.582,6.514,70,11.51,54.71968253968254
68.45,-0.066,0.342,8.593,6.517,70,11.51,54.72047619047619
68.52,-0.048,0.347,8.605,6.521,70,11.51,54.721269841269844
68.58,-0.118,0.344,8.615,6.523,70,11.51,54.72206349206349
68.65,0.277,0.3,8.622,6.526,70,11.51,54.722857142857144
68.71,-0.092,0.339,8.63,6.527,70,11.51,54.72365079365079
68.77,0.002,0.30944444444444447,8.635,6.529,70,11.51,54.724444444444444
68.84,0.115,0.25455555555555553,8.64,6.532,70,11.51,54.7252380952381
68.9,0.296,0.225,8.642,6.533,70,11.51,54.726031746031744
68.97,0.103,0.285,8.645,6.533,70,11.51,54.7268253968254
69.03,-0.082,0.339,8.646,6.533,70,11.51,54.72761904761905
69.1,-0.072,0.347,8.646,6.533,70,11.5,54.7284126984127
69.16,-0.08,0.223,8.644,6.533,70,11.51,54.72920634920635
69.23,-0.095,0.293,8.64,6.531,70,11.51,54.730000000000004
69.29,-0.078,0.171,8.635,6.529,70,11.51,54.73079365079365
69.35,-0.056,0.256,8.63,6.528,70,11.5,54.731587301587304
69.42,-0.13,0.334,8.623,6.527,70,11.5,54.73238095238095
69.48,0.208,0.176,8.616,6.524,70,11.5,54.733174603174604
69.55,-0.076,0.326,8.608,6.523,70,11.5,54.73396825396826
69.61,-0.02,0.337,8.598,6.521,70,11.51,54.7347619047619
69.68,0.085,0.122,8.588,6.517,70,11.51,54.73555555555556
69.74,0.266,0.142,8.578,6.514,70,11.51,54.73634920634921
69.81,0.095,0.334,8.569,6.512,70,11.51,54.73714285714286
69.87,-0.104,0.326,8.559,6.507,71,11.53,54.73793650793651
69.94,-0.097,0.274,8.549,6.504,71,11.51,54.73873015873016
70.0,-0.098,0.295,8.539,6.501,71,11.5,54.73952380952381
70.06,-0.119,0.166,8.526,6.497,71,11.5,54.74031746031746
70.13,-0.111,0.233,8.515,6.492,71,11.5,54.74111111111111
70.19,-0.057,0.23,8.503,6.487,71,11.5,54.74190476190476
70.26,-0.135,0.365,8.489,6.482,71,11.5,54.74269841269842
70.32,-0.08,0.35,8.472,6.477,71,11.5,54.74349206349206
70.39,0.17,0.326,8.455,6.472,71,11.5,54.744285714285716
70.45,-0.059,0.383,8.438,6.467,71,11.5,54.74507936507936
70.52,0.022,0.14,8.422,6.463,71,11.43,54.745873015873016
70.58,0.188,0.269,8.408,6.457,71,11.28,54.74666666666667
70.65,0.158,0.321,8.394,6.452,71,11.29,54.747460317460316
70.71,-0.134,0.394,8.384,6.447,70,11.28,54.74825396825397
70.77,-0.153,0.161,8.374,6.442,70,11.28,54.74904761904762
70.84,-0.154,0.124,8.377,6.436,70,11.28,54.74984126984127
70.9,-0.164,0.132,8.383,6.431,70,11.28,54.75063492063492
70.97,-0.117,0.223,8.377,6.425,70,11.29,54.75142857142857
71.03,-0.16,0.337,8.366,6.42,70,11.29,54.75222222222222
71.1,-0.205,0.3,8.347,6.411,70,11.29,54.753015873015876
71.16,0.209,0.244,8.346,6.41,70,11.29,54.75380952380952
71.23,-0.166,0.311,8.34,6.405,70,11.29,54.754603174603176
71.29,-0.051,0.368,8.334,6.4,70,11.29,54.75539682539683
71.35,0.081,0.368,8.333,6.395,74,11.29,54.756190476190476
71.42,0.213,0.197,8.336,6.39,74,11.29,54.75698412698413
71.48,-0.057,0.199,8.338,6.385,74,11.28,54.757777777777775
71.55,-0.133,0.274,8.33,6.38,74,11.28,54.75857142857143
71.61,-0.121,0.218,8.32,6.375,74,11.28,54.75936507936508
71.68,-0.116,0.355,8.305,6.37,74,11.28,54.76015873015873
71.74,-0.098,0.254,8.286,6.365,74,11.28,54.76095238095238
71.81,-0.045,0.295,8.262,6.362,74,11.28,54.761746031746036
71.87,-0.12,0.316,8.239,6.356,74,11.28,54.76253968253968
71.94,0.123,0.259,8.222,6.353,74,11.28,54.763333333333335
72.0,0.07,0.352,8.212,6.348,74,11.28,54.76412698412698
72.06,0.01,0.241,8.217,6.343,74,11.28,54.764920634920635
72.13,0.116,0.202,8.246,6.338,74,11.28,54.76571428571429
72.19,0.304,0.254,8.28,6.335,74,11.28,54.766507936507935
72.26,0.172,0.347,8.299,6.33,74,11.28,54.76730158730159
72.32,-0.053,0.267,8.304,6.325,74,11.28,54.76809523809524
72.39,-0.041,0.259,8.308,6.322,75,11.28,54.76888888888889
72.45,-0.036,0.218,8.308,6.318,75,11.28,54.76968253968254
72.52,-0.051,0.295,8.306,6.313,75,11.28,54.77047619047619
72.58,-0.034,0.244,8.304,6.309,75,11.28,54.77126984126984
72.65,0.0,0.3035,8.303,6.305,75,11.28,54.772063492063495
72.71,-0.077,0.363,8.302,6.3,75,11.28,54.77285714285714
72.77,0.194,0.264,8.299,6.298,75,11.28,54.773650793650795
72.84,0.075,0.36,8.293,6.293,75,11.28,54.77444444444445
72.9,0.038,0.313,8.284,6.289,75,11.28,54.775238095238095
72.97,0.145,0.20232475582268972,8.278,6.285,75,11.28,54.77603174603175
73.03,0.335,0.122,8.268,6.28,75,11.28,54.776825396825394
73.1,0.198,0.378,8.259,6.278,75,11.28,54.77761904761905
73.16,-0.029,0.339,8.254,6.273,75,11.28,54.7784126984127
73.23,-0.023,0.122,8.243,6.271,71,11.28,54.77920634920635
73.29,-0.022,0.269,8.233,6.267,71,11.28,54.78
73.35,-0.035,0.414,8.231,6.263,71,11.28,54.69
73.42,-0.045,0.295,8.225,6.258,71,11.28,54.64
73.48,0.004,0.197,8.205,6.256,71,11.28,54.62
73.55,-0.025,0.334,8.185,6.253,71,11.29,54.61
73.61,-0.064,0.329,8.173,6.248,71,11.29,54.58
73.68,0.343,0.303,8.169,6.246,71,11.28,54.65
73.74,-0.017,0.37,8.169,6.241,71,11.29,54.69
73.81,0.086,0.298,8.169,6.238,71,11.29,54.69
73.87,0.227,0.205,8.171,6.235,71,11.29,54.65
73.94,0.38,0.223,8.175,6.231,71,11.29,54.64
74.0,0.089,0.344,8.183,6.228,71,11.28,54.62
74.06,-0.002,0.298,8.196,6.225,68,11.29,54.64
74.13,0.0,0.295,8.201,6.222,68,11.29,54.61
74.19,-0.011,0.313,8.201,6.218,68,11.29,54.52
74.26,-0.025,0.313,8.199,6.216,68,11.29,54.49
74.32,-0.022,0.251,8.195,6.212,68,11.29,54.49
74.39,0.03,0.249,8.186,6.206,68,11.29,54.5
74.45,-0.052,0.246,8.186,6.206,68,11.29,54.5
74.52,0.054,0.311,8.185,6.202,68,11.29,54.5
74.58,0.227,0.326,8.194,6.198,68,11.29,54.53
74.65,0.049,0.311,8.232,6.196,68,11.29,54.54
74.71,0.144,0.122,8.266,6.192,68,11.29,54.54
74.77,0.328,0.228,8.278,6.188,68,11.29,54.56
74.84,0.271,0.339,8.284,6.186,68,11.29,54.56
74.9,-0.009,0.337,8.288,6.184,68,11.29,54.56
74.97,-0.015,0.293,8.291,6.18,68,11.29,54.57
75.03,-0.014,0.205,8.292,6.176,68,11.29,54.51
75.1,-0.037,0.199,8.291,6.174,68,11.29,54.44
75.16,-0.058,0.254,8.289,6.17,68,11.29,54.44
75.23,-0.01,0.344,8.284,6.166,68,11.29,54.44
75.29,-0.075,0.329,8.282,6.164,68,11.29,54.53
75.35,-0.114,0.285,8.277,6.16,68,11.29,54.64
75.42,0.267,0.285,8.27,6.158,68,11.29,54.78
75.48,-0.059,0.295,8.262,6.154,68,11.29,54.780454545454546
75.55,0.017,0.249,8.253,6.151,68,11.29,54.78090909090909
75.61,0.154,0.3,8.24,6.149,68,11.29,54.781363636363636
75.68,0.267,0.318,8.228,6.146,68,11.29,54.78181818181818
75.74,-0.053,0.321,8.218,6.144,68,11.29,54.782272727272726
75.81,-0.127,0.332,8.21,6.14,69,11.29,54.78272727272727
75.87,-0.12,0.298,8.206,6.139,69,11.29,54.783181818181816
75.94,-0.13,0.254,8.21,6.135,69,11.29,54.78363636363636
76.0,-0.112,0.277,8.219,6.134,69,11.29,54.78409090909091
76.06,-0.097,0.267,8.229,6.133,69,11.29,54.78454545454545
76.13,-0.166,0.339,8.235,6.13,69,11.29,54.785
76.19,0.226,0.272,8.249,6.13,69,11.29,54.78545454545455
76.26,-0.097,0.383,8.267,6.129,69,11.29,54.785909090909094
76.32,-0.025,0.202,8.288,6.129,69,11.29,54.78636363636364
76.39,0.085,0.119,8.32,6.128,75,11.29,54.786818181818184
76.45,0.265,0.311,8.359,6.128,75,11.29,54.78727272727273
76.52,0.063,0.339,8.403,6.13,75,11.29,54.787727272727274
76.58,-0.111,0.373,8.437,6.13,75,11.29,54.78818181818182
76.65,-0.093,0.163,8.464,6.133,75,11.29,54.788636363636364
76.71,-0.094,0.166,8.498,6.134,75,11.29,54.78909090909091
76.77,-0.096,0.326,8.537,6.135,75,11.29,54.789545454545454
76.84,-0.043,0.277,8.575,6.138,75,11.29,54.79
76.9,-0.062,0.313,8.615,6.138,75,11.29,54.790454545454544
76.97,-0.097,0.37,8.66,6.14,75,11.29,54.79090909090909
77.03,0.374,0.249,8.702,6.141,75,11.29,54.791363636363634
77.1,-0.047,0.324,8.749,6.143,75,11.29,54.79181818181818
77.16,0.078,0.228,8.795,6.145,75,11.29,54.792272727272724
77.23,0.215,0.166,8.84,6.146,75,11.28,54.79272727272727
77.29,0.18109294436906376,0.277,8.88,6.148,75,11.28,54.793181818181814
77.35,0.109,0.368,8.914,6.149,75,11.29,54.79363636363636
77.42,-0.009,0.288,8.944,6.15,72,11.28,54.794090909090905
77.48,0.02,0.28,8.971,6.15,72,11.28,54.79454545454545
77.55,0.018,0.233,9.0,6.15,72,11.28,54.795
77.61,0.009,0.347,9.025,6.15,72,11.27,54.79545454545455
77.68,0.041,0.163,9.049,6.15,72,11.27,54.79590909090909
77.74,0.057,0.329,9.072,6.151,72,11.26,54.79636363636364
77.81,0.0,0.311,9.093,6.15,72,11.26,54.79681818181818
77.87,0.366,0.267,9.116,6.15,72,11.26,54.79727272727273
77.94,0.102,0.339,9.13,6.15,72,11.26,54.79772727272727
78.0,0.138,0.277,9.143,6.15,72,11.26,54.79818181818182
78.06,0.256,0.202,9.158,6.149,72,11.26,54.79863636363636
78.13,0.27035514918190573,0.119,9.174,6.148,72,11.26,54.79909090909091
78.19,0.275,0.37,9.183,6.145,72,11.27,54.79954545454545
78.26,0.058,0.269,9.184,6.145,72,11.27,54.8
78.32,0.063,0.277,9.182,6.144,70,11.27,54.75
78.39,0.064,0.272,9.177,6.143,70,11.27,54.61
78.45,0.042,0.223,9.172,6.14,70,11.27,54.48
78.52,0.031,0.386,9.162,6.139,70,11.27,54.4
78.58,0.081,0.352,9.15,6.136,70,11.27,54.37
78.65,0.035,0.251,9.138,6.134,70,11.27,54.3
78.71,-0.009,0.293,9.128,6.133,70,11.28,54.19
78.77,-0.01054696132596685,0.223,9.122,6.131,70,11.28,54.07
78.84,-0.011,0.355,9.124,6.128,70,11.29,54.15
78.9,0.075,0.368,9.129,6.128,70,11.29,54.19
78.97,0.19,0.259,9.137,6.125,70,11.31,54.25
79.03,0.34,0.355,9.154,6.123,70,11.31,54.33
79.1,0.011,0.368,9.177,6.123,70,11.31,54.42
79.16,-0.133,0.295,9.193,6.12,67,11.31,54.45
79.23,-0.125,0.35,9.211,6.118,67,11.28,54.43
79.29,-0.138,0.334,9.23,6.115,67,11.28,54.37
79.35,-0.165,0.329,9.249,6.114,67,11.27,54.34
79.42,-0.14,0.142,9.27,6.113,67,11.27,54.37
79.48,-0.179,0.148,9.288,6.11,67,11.28,54.58
79.55,-0.23,0.332,9.303,6.109,67,11.29,54.656666666666666
79.61,0.212,0.267,9.317,6.108,67,11.29,54.733333333333334
79.68,-0.241,0.334,9.332,6.105,67,11.29,54.81
79.74,-0.132,0.199,9.348,6.104,67,11.29,54.78
79.81,-0.017,0.282,9.363,6.103,70,11.29,54.779318181818184
79.87,0.156,0.251,9.375,6.1,70,11.29,54.778636363636366
79.94,-0.139,0.365,9.386,6.099,70,11.28,54.77795454545455
80.0,-0.274,0.381,9.396,6.098,70,11.29,54.77727272727273
80.06,-0.26,0.334,9.404,6.096,70,11.29,54.77659090909091
80.13,-0.263,0.251,9.41,6.093,70,11.29,54.77590909090909
80.19,-0.229,0.342,9.415,6.092,70,11.29,54.77522727272727
80.26,-0.25,0.329,9.422,6.088,70,11.29,54.77454545454545
80.32,-0.3,0.334,9.423,6.088,70,11.29,54.773863636363636
80.39,0.184,0.254,9.423,6.088,70,11.28,54.77318181818182
80.45,-0.258,0.272,9.422,6.088,70,11.28,54.7725
80.52,-0.141,0.202,9.418,6.086,70,11.28,54.77181818181818
80.58,-0.008,0.13,9.413,6.086,77,11.29,54.771136363636366
80.65,0.197,0.176,9.41,6.086,77,11.29,54.77045454545455
80.71,-0.078,0.36,9.4,6.083,77,11.28,54.76977272727273
80.77,-0.228,0.197,9.39,6.082,77,11.28,54.76909090909091
80.84,-0.2,0.228,9.364,6.081,77,11.28,54.76840909090909
80.9,-0.197,0.212,9.372,6.078,77,11.29,54.76772727272727
80.97,-0.191,0.207,9.394,6.076,77,11.31,54.76704545454545
81.03,-0.127,0.205,9.415,6.076,77,11.29,54.766363636363636
81.1,-0.196,0.355,9.479,6.073,77,11.28,54.76568181818182
81.16,-0.216,0.355,9.471,6.072,77,11.28,54.765
81.23,0.233,0.306,9.42,6.069,77,11.28,54.76431818181818
81.29,-0.118,0.337,9.373,6.067,77,11.28,54.763636363636365
81.35,-0.039,0.394,9.321,6.063,77,11.29,54.76295454545455
81.42,0.135,0.168,9.279,6.061,73,11.29,54.76227272727273
81.48,0.223,0.272,9.239,6.057,73,11.28,54.76159090909091
81.55,-0.128,0.22,9.206,6.054,73,11.29,54.76090909090909
81.61,-0.168,0.06,9.182,6.053,73,11.29,54.76022727272727
81.68,-0.142,0.072,9.15,6.049,73,11.29,54.75954545454545
81.74,-0.15,0.057999999999999996,9.119,6.046,73,11.31,54.758863636363635
81.81,-0.153,0.044,9.085,6.042,73,11.31,54.75818181818182
81.87,-0.144,0.049,9.05,6.037,73,11.32,54.7575
81.94,-0.079,0.269,9.015,6.034,73,11.33,54.75681818181818
82.0,-0.156,0.334,8.98,6.029,73,11.33,54.756136363636365
82.06,-0.159,0.13,8.945,6.027,73,11.32,54.75545454545455
82.13,0.261,0.269,8.907,6.023,73,11.31,54.75477272727273
82.19,-0.052,0.225,8.868,6.019,73,11.31,54.75409090909091
82.26,0.027,0.259,8.831,6.017,73,11.32,54.75340909090909
82.32,0.21,0.065,8.796,6.013,73,11.33,54.75272727272727
82.39,0.296,0.29,8.758,6.011,73,11.33,54.75204545454545
82.45,-0.046,0.451,8.721,6.007,73,11.33,54.751363636363635
82.52,-0.089,0.347,8.678,6.004,66,11.33,54.75068181818182
82.58,-0.068,0.417,8.641,6.0,66,11.32,54.75
82.65,-0.077,0.318,8.604,5.999,66,11.33,54.5
82.71,-0.087,0.355,8.57,5.996,66,11.35,54.33
82.77,-0.092,0.344,8.539,5.994,66,11.39,54.24
82.84,-0.046,0.35,8.489,5.99,66,11.4,54.02
82.9,-0.055,0.337,8.486,5.989,66,11.39,54.01
82.97,-0.104,0.293,8.465,5.987,66,11.39,53.93
83.03,0.339,0.233,8.445,5.984,66,11.38,53.87
83.1,-0.091,0.344,8.423,5.981,66,11.35,53.77
83.16,0.027,0.365,8.402,5.98,66,11.34,53.64
83.23,0.159,0.355,8.385,5.972,66,11.33,53.51
83.29,0.374,0.316,8.365,5.967,66,11.33,53.27
83.35,0.136,0.396,8.348,5.97,66,11.33,52.69
83.42,-0.061,0.332,8.329,5.969,64,11.33,52.13
83.48,-0.043,0.326,8.314,5.965,64,11.33,52.03
83.55,-0.044,0.394,8.299,5.962,64,11.33,51.75
83.61,-0.06,0.321,8.284,5.959,64,11.33,51.48
83.68,-0.07,0.347,8.269,5.955,64,11.33,51.41
83.74,-0.059,0.168,8.257,5.952,64,11.32,51.37
83.81,-0.003,0.062,8.242,5.947,64,11.32,51.33
83.87,-0.083,0.262,8.232,5.944,64,11.32,51.31
83.94,-0.038,0.282,8.225,5.945,64,11.32,51.51
84.0,0.258,0.347,8.219,5.94,64,11.32,51.55
84.06,0.008,0.337,8.21,5.936,64,11.31,51.48
84.13,0.1,0.174,8.195,5.935,64,11.32,51.38
84.19,0.295,0.07,8.18,5.934,64,11.32,51.26
84.26,0.303,0.35,8.167,5.934,64,11.33,51.19
84.32,-0.033,0.303,8.153,5.931,64,11.32,51.17
84.39,-0.065,0.194,8.14,5.929,64,11.32,51.14
84.45,-0.064,0.262,8.127,5.927,64,11.32,51.01
84.52,-0.091,0.228,8.115,5.925,64,11.31,50.88
84.58,-0.116,0.122,8.103,5.922,64,11.31,50.83
84.65,-0.1,0.262,8.091,5.921,64,11.31,50.89
84.71,-0.105,0.272,8.08,5.919,64,11.31,51.09
84.77,-0.163,0.21,8.069,5.918,64,11.32,51.3
84.84,0.099,0.21,8.058,5.915,64,11.31,51.54
84.9,-0.01,0.365,8.046,5.913,64,11.31,51.78
84.97,-0.054,0.29,8.028,5.909,64,11.31,52.17
85.03,0.056,0.23,8.026,5.909,67,11.31,52.19
85.1,0.269,0.2625,8.014,5.908,67,11.31,52.37
85.16,0.145,0.295,8.004,5.907,67,11.31,52.53
85.23,-0.122,0.132,7.994,5.904,67,11.31,52.66
85.29,-0.119,0.17814676113360323,7.984,5.903,67,11.31,52.77
85.35,-0.111,0.259,7.974,5.902,67,11.31,52.86
85.42,-0.039,0.334,7.964,5.9,67,11.31,52.96
85.48,-0.108,0.373,7.954,5.898,67,11.31,53.1
85.55,-0.139,0.332,7.945,5.897,67,11.32,53.26
85.61,0.308,0.306,7.935,5.895,67,11.33,53.4
85.68,-0.06,0.355,7.925,5.894,67,11.33,53.43
85.74,0.048,0.347,7.915,5.892,67,11.33,53.33
85.81,0.221,0.321,7.906,5.892,67,11.32,53.29
85.87,0.358,0.344,7.897,5.89,67,11.29,53.32
85.94,0.011,0.352,7.887,5.889,67,11.29,53.32
86.0,-0.054,0.381,7.879,5.889,80,11.29,53.29
86.06,-0.031,0.318,7.87,5.888,80,11.29,53.22
86.13,-0.035,0.321,7.862,5.887,80,11.29,53.1
86.19,0.009,0.342,7.853,5.887,80,11.28,53.04
86.26,-0.024,0.347,7.843,5.887,80,11.28,53.0
86.32,-0.071,0.218,7.835,5.885,80,11.28,53.03
86.39,-0.052140127388535025,0.259,7.827,5.884,80,11.28,53.07
86.45,-0.008,0.318,7.818,5.884,80,11.28,53.11
86.52,0.09,0.318,7.809,5.884,80,11.29,53.13
86.58,0.253,0.215,7.802,5.884,80,11.35,53.17
86.65,0.1789207920792079,0.228,7.794,5.884,80,11.22,53.23
86.71,0.061,0.391,7.787,5.884,80,11.24,53.26
86.77,-0.021,0.37,7.778,5.884,76,11.35,53.26
86.84,0.012,0.316,7.771,5.883,76,11.28,53.22
86.9,0.057,0.399,7.762,5.882,76,11.32,53.14
86.97,0.015,0.368,7.756,5.882,76,11.59,53.1
87.03,-0.026,0.316,7.747,5.882,76,11.79,53.07
87.1,-0.0014821296978629293,0.22,7.74,5.879,76,12.01,53.0
87.16,0.055,0.264,7.733,5.882,76,12.15,52.97
87.23,0.174,0.251,7.729,5.88,76,12.16,52.8
87.29,0.343,0.254,7.725,5.879,76,12.12,52.66
87.35,0.2728382917466411,0.225,7.72,5.879,76,12.14,52.54
87.42,0.16,0.363,7.713,5.877,76,12.14088888888889,52.41
87.48,0.079,0.324,7.703,5.877,76,12.141777777777778,52.15
87.55,0.095,0.31800568181818184,7.696,5.877,76,12.142666666666667,51.92
87.61,0.067,0.316,7.688,5.877,76,12.143555555555556,51.65
87.68,0.066,0.334,7.68,5.874,76,12.144444444444446,51.41
87.74,0.08,0.181,7.673,5.873,76,12.145333333333333,51.14
87.81,0.12,0.14,7.666,5.872,76,12.146222222222223,50.82
87.87,0.065,0.337,7.66,5.872,76,12.147111111111112,50.36
87.94,0.372,0.293,7.653,5.875,84,12.148,48.47
88.0,0.075,0.332,7.652,5.877,84,12.148888888888889,48.36
88.06,-0.012,0.339,7.65,5.877,84,12.149777777777778,48.14
88.13,-0.082,0.326,7.643,5.877,84,12.150666666666668,48.24
88.19,-0.089,0.264,7.638,5.877,84,12.151555555555555,48.45
88.26,-0.09942333596853262,0.329,7.63,5.877,84,12.152444444444445,48.42
88.32,-0.11277075620750324,0.313,7.625,5.874,84,12.153333333333334,48.04
88.39,-0.12854221024391926,0.057,7.62,5.873,84,12.154222222222224,47.65
88.45,-0.14623764760478797,0.223,7.613,5.869,84,12.155111111111111,47.41
88.52,-0.16535701781711687,0.212,7.609,5.868,84,12.156,47.24
88.58,-0.1854002704079132,0.3,7.609,5.867,84,12.15688888888889,47.36
88.65,-0.2058673549041845,0.168,7.607,5.864,84,12.157777777777778,47.62
88.71,-0.22625822083293806,0.122,7.603,5.86,84,12.158666666666667,47.97
88.77,-0.24607281772118123,0.13,7.599,5.854,84,12.159555555555556,48.38
88.84,-0.2648110950959214,0.158,7.593,5.852,84,12.160444444444446,48.83
88.9,-0.281973002484166,0.254,7.588,5.85,84,12.161333333333333,49.12
88.97,-0.29705848941292234,0.409,7.581,5.849,84,12.162222222222223,49.33
89.03,-0.3095675054091979,0.513,7.576,5.827,84,12.163111111111112,49.48
89.1,-0.319,0.264,7.571,5.828,84,12.164000000000001,49.6
89.16,-0.32681079888685266,0.21,7.563,5.835,84,12.164888888888889,49.65
89.23,-0.33442448924183804,0.119,7.559,5.843,84,12.165777777777778,49.67
89.29,-0.3412956627978008,0.199,7.553,5.842,84,12.166666666666668,49.69
89.35,-0.34687891128758563,0.186,7.548,5.842,84,12.167555555555555,49.76
89.42,-0.35062882644403714,0.127,7.543,5.842,84,12.168444444444445,50.02
89.48,-0.352,0.127,7.536,5.844,84,12.169333333333334,50.26
89.55,-0.285,0.127,7.531,5.844,84,12.170222222222224,50.63
89.61,-0.235,0.044,7.524,5.843,84,12.171111111111111,50.94
89.68,0.212,0.168,7.518,5.84,84,12.172,50.97
89.74,-0.059,0.1085,7.513,5.837,84,12.17288888888889,51.12
89.81,0.098,0.049,7.507,5.835,84,12.173777777777778,51.21
89.87,0.301,0.054,7.501,5.835,84,12.174666666666667,51.16
89.94,0.27627602523659306,0.119,7.499,5.833,84,12.175555555555556,51.14
90.0,0.226,0.119,7.494,5.829,84,12.176444444444446,51.17
90.06,0.154,0.10085185185185185,7.486,5.827,84,12.177333333333333,51.24
90.13,0.187,0.06714814814814815,7.483,5.825,84,12.178222222222223,51.28
90.19,0.197,0.049,7.476,5.825,84,12.179111111111112,51.21
90.26,0.188,0.238,7.471,5.825,84,12.18,51.14
90.32,0.249,0.246,7.465,5.826,84,12.180888888888889,51.15
90.39,0.181,0.363,7.459,5.828,84,12.181777777777778,51.27
90.45,0.129,0.35,7.454,5.832,84,12.182666666666668,51.29
90.52,0.06973049506884094,0.194,7.447,5.832,84,12.183555555555555,51.15
90.58,0.026,0.376,7.441,5.832,84,12.184444444444445,50.92
90.65,0.012,0.337,7.436,5.832,84,12.185333333333334,50.6
90.71,0.062,0.386,7.431,5.832,84,12.186222222222224,50.15
90.77,0.136,0.365,7.434,5.83,84,12.187111111111111,49.57
90.84,-0.235,0.326,7.432,5.827,84,12.188,49.15
90.9,-0.24483467074659285,0.326,7.425,5.825,84,12.18888888888889,49.16
90.97,-0.2538316584822284,0.306,7.422,5.825,84,12.189777777777778,49.18
91.03,-0.26202806841411835,0.272,7.414,5.823,84,12.190666666666667,49.02
91.1,-0.2694610057494745,0.277,7.412,5.821,84,12.191555555555556,48.57
91.16,-0.27616757569550854,0.254,7.409,5.817,84,12.192444444444446,48.14
91.23,-0.28218488345943227,0.233,7.429,5.82,84,12.193333333333333,47.74
91.29,-0.2875500342484574,0.337,7.447,5.818,84,12.194222222222223,47.42
91.35,-0.29230013326979576,0.236,7.448,5.817,84,12.195111111111112,47.27
91.42,-0.2964722857306591,0.308,7.44,5.817,84,12.196000000000002,47.38
91.48,-0.30010359683825905,0.339,7.426,5.815,84,12.19688888888889,47.62
91.55,-0.3032311717998075,0.277,7.412,5.815,84,12.197777777777778,47.65
91.61,-0.3058921158225162,0.391,7.397,5.813,84,12.198666666666668,47.37
91.68,-0.3081235341135968,0.308,7.384,5.812,84,12.199555555555555,47.05
91.74,-0.3099625318802611,0.202,7.377,5.807,84,12.200444444444445,46.93
91.81,-0.31144621432972086,0.148,7.368,5.807,84,12.201333333333334,46.92
91.87,-0.31261168666918787,0.215,7.36,5.811,84,12.202222222222224,46.92
91.94,-0.31349605410587394,0.267,7.353,5.817,84,12.203111111111111,46.83
92.0,-0.31413642184699075,0.22,7.343,5.826,84,12.204,46.55
92.06,-0.31456989509974986,0.3252808764940239,7.335,5.847,84,12.20488888888889,46.3
92.13,-0.31483357907136333,0.443,7.327,5.865,84,12.205777777777778,46.27
92.19,-0.31496457896904284,0.46321912350597605,7.321,5.867,84,12.206666666666667,46.38
92.26,-0.315,0.471,7.315,5.87,84,12.207555555555556,46.5
92.32,-0.3100980392156863,0.44,7.308,5.874,84,12.208444444444446,46.64
92.39,-0.2951960784313726,0.38173780487804876,7.301,5.875,84,12.209333333333333,46.78
92.45,-0.27,0.342,7.291,5.881,84,12.210222222222223,47.0
92.52,-0.155,0.3440740740740741,7.283,5.89,84,12.211111111111112,47.37
92.58,-0.397,0.3479259259259259,7.276,5.894,84,12.212,47.76
92.65,-0.403,0.35,7.267,5.9,84,12.21288888888889,48.09
92.71,-0.283,0.166,7.26,5.902,84,12.213777777777779,48.25
92.77,-0.264,0.166,7.255,5.903,84,12.214666666666668,48.66
92.84,-0.222,0.078,7.246,5.903,84,12.215555555555556,49.41
92.9,-0.122,0.047,7.239,5.898,84,12.216444444444445,49.89
92.97,-0.125,0.088,7.234,5.895,84,12.217333333333334,50.05
93.03,0.047,0.096,7.216,5.892,84,12.218222222222224,49.82
93.1,0.211,0.104,7.215,5.892,84,12.219111111111111,49.79
93.16,0.083,0.078,7.209,5.897,84,12.22,49.79
93.23,0.221,0.111,7.2,5.895,84,12.09,49.91
93.29,0.1987037037037037,0.109,7.198,5.894,84,12.05,49.97
93.35,0.1572962962962963,0.083,7.188,5.894,84,11.98,49.88
93.42,0.135,0.07,7.183,5.895,84,11.9,49.81
93.48,0.177,0.083,7.173,5.899,84,11.89,49.52
93.55,0.182,0.078,7.165,5.899,84,11.88,49.34
93.61,0.197,0.109,7.16,5.897,84,11.84,49.38
93.68,0.205,0.078,7.158,5.895,84,11.85,49.56
93.74,0.214,0.047,7.153,5.894,84,11.85,49.67
93.81,0.146,0.272,7.15,5.893,84,11.83,49.8
93.87,0.15715287769784173,0.272,7.146,5.893,84,11.85,49.87
93.94,0.182,0.329,7.141,5.89,84,11.89,49.98
94.0,0.229,0.386,7.137,5.888,84,11.93,50.3
94.06,0.341,0.306,7.133,5.881,84,11.96,50.71
94.13,0.3005555555555556,0.3401393442622951,7.128,5.875,84,11.99,50.92
94.19,0.22544444444444445,0.376,7.122,5.868,84,12.05,51.21
94.26,0.185,0.378,7.118,5.867,84,11.98,51.94
94.32,0.196,0.386,7.115,5.868,84,12.22,52.64
94.39,0.221,0.373,7.111,5.865,84,12.22,53.04
94.45,0.271,0.116,7.108,5.856,84,12.22,53.28
94.52,0.248,0.324,7.105,5.846,84,12.22,53.73
94.58,0.238,0.332,7.105,5.84,84,12.22,53.99
94.65,0.285909380142622,0.329,7.102,5.838,84,12.18,53.92
94.71,0.335,0.37,7.102,5.832,84,12.2,53.95
94.77,0.33730147913045005,0.386,7.102,5.823,84,12.25,54.36
94.84,0.3394830742136836,0.313,7.102,5.817,84,12.244347826086956,54.415
94.9,0.3415479600760608,0.378,7.105,5.813,84,12.238695652173913,54.47
94.97,0.3434993115439421,0.365,7.107,5.807,84,12.23304347826087,54.525
95.03,0.3453403034436876,0.383,7.105,5.798,84,12.227391304347826,54.58
95.1,0.34707411060165777,0.376,7.103,5.792,84,12.221739130434782,54.635
95.16,0.34870390784421285,0.313,7.1,5.782,84,12.216086956521739,54.69
95.23,0.35023286999771314,0.044,7.097,5.777,84,12.210434782608695,54.25
95.29,0.3516641718885188,0.365,7.095,5.782,84,12.204782608695652,53.99
95.35,0.3530009883429902,0.368,7.095,5.802,84,12.199130434782608,53.83
95.42,0.3542464941874877,0.339,7.09,5.818,84,12.193478260869565,53.36
95.48,0.35540386424837156,0.332,7.092,5.807,84,12.187826086956521,52.91
95.55,0.35647627335200205,0.386,7.09,5.801,84,12.182173913043478,52.57
95.61,0.35746689632473944,0.267,7.152,5.837,84,12.176521739130434,52.24
95.68,0.35837890799294403,0.119,7.158,5.838,84,12.17086956521739,52.23
95.74,0.3592154831829762,0.067,7.205,5.845,84,12.165217391304347,52.03
95.81,0.3599797967211961,0.057,7.236,5.85,84,12.159565217391304,51.8
95.87,0.3606750234339641,0.119,7.26,5.855,84,12.15391304347826,51.59
95.94,0.36130433814764046,0.332,7.27,5.863,84,12.148260869565217,51.35
96.0,0.3618709156885856,0.35,7.277,5.865,84,12.142608695652173,51.05
96.06,0.3623779308831596,0.334,7.291,5.867,84,12.13695652173913,50.64
96.13,0.36282855855772284,0.342,7.312,5.869,84,12.131304347826086,50.23
96.19,0.3632259735386357,0.329,7.314,5.869,84,12.125652173913043,50.02
96.26,0.3635733506522584,0.363,7.326,5.869,84,12.12,49.89
96.32,0.3638738647249512,0.326,7.332,5.87,84,11.87,49.76
96.39,0.3641306905830744,0.386,7.34,5.872,84,12.01,49.73
96.45,0.36434700305298834,0.3,7.346,5.872,84,11.87,49.67
96.52,0.3645259769610532,0.20934549356223175,7.337,5.872,84,11.72,49.54
96.58,0.36467078713362944,0.158,7.32,5.872,84,11.6,49.48
96.65,0.36478460839707716,0.269,7.31,5.872,84,11.5,49.48
96.71,0.36487061557775685,0.21066666666666667,7.302,5.872,84,11.48,49.47
96.77,0.36493198350202866,0.10233333333333333,7.295,5.872,84,11.39,49.41
96.84,0.36497188699625294,0.044,7.292,5.873,84,11.06,49.25
96.9,0.36499350088678995,0.091,7.29,5.873,84,11.42,49.15
96.97,0.365,0.122,7.289,5.874,84,10.89,49.13
97.03,0.349,0.078,7.29,5.873,84,11.23,49.14
97.1,0.291,0.236,7.294,5.874,84,11.15,49.19
97.16,0.255,0.228,7.297,5.874,84,11.13,49.43
97.23,0.2595317119694802,0.23,7.305,5.874,84,10.98,49.84
97.29,0.2727300906056271,0.329,7.312,5.874,84,11.06,50.13
97.35,0.294,0.383,7.321,5.874,84,11.0,50.36
97.42,0.369,0.365,7.337,5.874,84,11.05,50.73
97.48,0.3130192023633678,0.373,7.337,5.874,84,11.0,50.74
97.55,0.20303840472673557,0.376,7.345,5.874,84,11.04,50.86
97.61,0.126,0.355,7.354,5.874,84,11.01,50.97
97.68,0.104,0.37,7.364,5.874,84,11.02,51.07
97.74,0.081,0.388,7.373,5.874,84,11.01,51.11
97.81,0.049,0.373,7.38,5.874,84,11.01,51.22
97.87,0.035,0.401,7.389,5.874,84,11.01,51.4
97.94,0.073,0.373,7.395,5.872,84,11.0,51.58
98.0,-0.017,0.401,7.402,5.872,84,11.0,51.76
98.06,0.022,0.313,7.407,5.87,84,11.0,51.89
98.13,0.267,0.308,7.412,5.869,84,11.0,51.98
98.19,0.057,0.29,7.417,5.868,84,11.0,52.05
98.26,0.123,0.269,7.419,5.867,84,11.0,52.19
98.32,0.289,0.197,7.423,5.865,84,11.0,52.35
98.39,0.261,0.295,7.425,5.863,83,11.0,52.48
98.45,-0.034,0.391,7.429,5.859,83,11.0,52.63
98.52,-0.058,0.171,7.429,5.859,82,11.0,52.63
98.58,-0.066,0.225,7.428,5.858,82,11.0,52.62
98.65,-0.082,0.306,7.429,5.857,81,11.0,52.62
98.71,-0.086,0.324,7.428,5.854,81,11.0,52.64
98.77,-0.034,0.399,7.426,5.852,80,11.0,52.67
98.84,-0.114,0.378,7.425,5.85,80,11.0,52.69
98.9,-0.096,0.352,7.423,5.848,80,11.0,52.69
98.97,0.268,0.35,7.421,5.845,79,11.0,52.63
99.03,-0.029,0.381,7.417,5.843,79,11.0,52.58
99.1,0.05,0.342,7.413,5.84,78,10.99,52.55
99.16,0.22,0.119,7.409,5.838,78,11.0,52.55
99.23,0.229,0.329,7.402,5.835,77,11.0,52.52
99.29,-0.06,0.383,7.397,5.833,77,10.99,52.48
99.35,-0.071,0.396,7.392,5.83,76,11.0,52.38
99.42,-0.056,0.386,7.384,5.827,76,11.0,52.18
99.48,-0.056,0.412,7.378,5.826,75,11.0,51.92
99.55,-0.053,0.381,7.369,5.822,75,10.99,51.71
99.61,-0.047,0.381,7.362,5.82,75,10.99,51.53
99.68,-0.004,0.313,7.354,5.817,74,10.99,51.4
99.74,0.002,0.376,7.347,5.813,74,10.99,51.25
99.81,-0.05,0.394,7.338,5.812,73,10.99,51.03
99.87,-0.04742870999030068,0.28,7.331,5.81,73,10.99,50.78
99.94,-0.039,0.386,7.323,5.806,72,10.99,50.57
100.0,0.083,0.401,7.315,5.803,72,10.99,50.42
100.06,0.212,0.295,7.307,5.801,71,11.0,50.3
100.13,0.20545897832817336,0.202,7.3,5.798,71,11.0,50.19
100.19,0.185,0.383,7.292,5.796,70,11.0,50.06
100.26,0.0,0.344,7.283,5.793,70,11.0,49.93
100.32,0.008,0.365,7.277,5.791,70,11.0,49.79
100.39,0.002,0.376,7.27,5.787,69,11.0,49.56
100.45,-0.018,0.332,7.262,5.785,69,10.99,49.4
100.52,-0.029,0.254,7.255,5.782,68,11.0,49.32
100.58,-0.033,0.36,7.247,5.78,68,11.0,49.24
100.65,-0.033,0.293,7.243,5.777,67,11.0,49.19
100.71,-0.002,0.228,7.235,5.775,67,11.0,49.12
100.77,0.004,0.329,7.229,5.772,66,10.98,49.06
100.84,-0.049,0.37,7.223,5.77,66,10.95,49.01
100.9,0.372,0.295,7.215,5.767,66,10.98,49.01
100.97,-0.045,0.404,7.21,5.763,65,10.95,49.01
101.03,0.07,0.249,7.204,5.762,65,10.96,48.98
101.1,0.192,0.199,7.198,5.758,64,10.95,48.97
101.16,0.38,0.2723632075471698,7.193,5.757,64,10.95,48.97
101.23,0.184,0.35,7.186,5.755,63,10.95,48.95
101.29,-0.023,0.355,7.18,5.752,63,10.95,48.95
101.35,-0.019,0.274,7.175,5.75,62,10.95,48.94
101.42,-0.022,0.161,7.17,5.747,62,10.95,48.83
101.48,-0.045,0.163,7.165,5.745,62,10.95,48.77
101.55,-0.057,0.308,7.159,5.743,61,10.95,48.8
101.61,-0.063,0.329,7.153,5.74,61,10.95,48.77
101.68,-0.063,0.396,7.148,5.738,60,10.95,48.79
101.74,-0.041,0.383,7.143,5.735,60,10.95,48.8
101.81,-0.023,0.324,7.138,5.733,59,10.95,48.82
101.87,-0.083,0.22,7.133,5.73,59,10.95,48.79
101.94,0.287,0.259,7.128,5.728,58,10.95,48.79
102.0,-0.059,0.388,7.123,5.726,58,10.94,48.8
102.06,0.017,0.35,7.118,5.724,57,10.95,48.8
102.13,0.122,0.344,7.113,5.721,57,10.94,48.8
102.19,0.305,0.116,7.108,5.719,57,10.94,48.81
102.26,0.14,0.344,7.103,5.718,57,10.94,48.85
102.32,-0.104,0.42,7.098,5.715,57,10.94,48.99
102.39,-0.111,0.332,7.093,5.711,57,10.94,49.18
102.45,-0.113,0.197,7.088,5.71,57,10.95,49.24
102.52,-0.132,0.288,7.083,5.708,57,10.93,49.34
102.58,-0.151,0.272,7.078,5.706,57,10.94,49.54
102.65,-0.163,0.192,7.076,5.703,57,10.93,49.72
102.71,-0.148,0.28400000000000003,7.071,5.701,57,10.94,49.92
102.77,-0.123,0.376,7.066,5.699,57,10.93,50.05
102.84,-0.192,0.29,7.061,5.698,57,10.94,50.15
102.9,0.174,0.23,7.056,5.695,57,10.93,50.27
102.97,-0.157,0.344,7.051,5.693,57,10.93,50.44
103.03,-0.097,0.3131481481481482,7.047,5.693,57,10.93,50.63
103.1,0.0,0.25585185185185183,7.044,5.691,62,10.93,50.8
103.16,0.193,0.225,7.039,5.69,62,10.93,50.96
103.23,0.037,0.311,7.034,5.688,62,10.93,51.11
103.29,-0.189,0.116,7.029,5.685,62,10.93,51.26
103.35,-0.195,0.116,7.026,5.683,62,10.93,51.41
103.42,-0.198,0.116,7.021,5.68,62,10.93,51.5
103.48,-0.211,0.12896875,7.016,5.678,62,10.93,51.67
103.55,-0.212,0.15750000000000003,7.011,5.675,62,10.93,51.87
103.61,-0.157,0.18603125000000004,7.007,5.673,62,10.93,52.04
103.68,-0.234,0.199,7.004,5.671,62,10.93,52.19
103.74,-0.183,0.163,6.999,5.669,62,10.93,52.24
103.81,0.135,0.277,6.994,5.666,62,10.93,52.29
103.87,-0.129,0.116,6.991,5.664,62,10.93,52.34
103.94,-0.039,0.313,6.986,5.663,62,10.93,52.44
104.0,0.143,0.199,6.981,5.659,69,10.93,52.55
104.06,0.143,0.318,6.978,5.658,69,10.93,52.64
104.13,-0.165,0.388,6.974,5.657,69,10.93,52.67
104.19,-0.186,0.342,6.969,5.653,69,10.93,52.71
104.26,-0.181,0.368,6.967,5.652,69,10.93,52.71
104.32,-0.188,0.355,6.962,5.649,69,10.93,52.68
104.39,-0.176,0.344,6.958,5.648,69,10.93,52.69
104.45,-0.135,0.308,6.954,5.646,69,10.93,52.69
104.52,-0.209,0.373,6.949,5.643,69,10.93,52.7
104.58,-0.017,0.295,6.946,5.641,69,10.93,52.69
104.65,0.054,0.383,6.942,5.638,69,10.93,52.65
104.71,-0.09,0.29,6.937,5.637,69,10.93,52.61
104.77,0.007,0.225,6.934,5.633,72,10.93,52.6
104.84,0.202,0.158,6.929,5.632,72,10.93,52.62
104.9,0.112,0.326,6.927,5.631,72,10.93,52.62
104.97,-0.162,0.378,6.922,5.628,72,10.93,52.6
105.03,-0.165,0.347,6.919,5.626,72,10.93,52.57
105.1,-0.161,0.401,6.914,5.624,72,10.93,52.45
105.16,-0.166,0.388,6.911,5.622,72,10.93,52.34
105.23,-0.161,0.373,6.907,5.619,72,10.93,52.3
105.29,-0.102,0.298,6.902,5.618,72,10.93,52.26
105.35,-0.174,0.274,6.899,5.616,72,10.93,52.24
105.42,-0.129,0.225,6.896,5.613,72,10.93,52.2
105.48,0.234,0.36,6.892,5.612,72,10.93,52.1
105.55,-0.059,0.342,6.889,5.608,72,10.93,52.0
105.61,0.031,0.256,6.885,5.608,72,10.91,51.93
105.68,0.219,0.228,6.881,5.606,70,10.91,51.88
105.74,0.23,0.339,6.877,5.603,70,10.91,51.79
105.81,-0.085,0.386,6.874,5.602,70,10.91,51.68
105.87,-0.105,0.288,6.87,5.599,70,10.91,51.56
105.94,-0.088,0.352,6.867,5.598,70,10.91,51.37
106.0,-0.091,0.373,6.862,5.596,70,10.91,51.14
106.06,-0.086,0.225,6.859,5.594,70,10.91,50.98
106.13,-0.084,0.223,6.855,5.591,70,10.91,50.84
106.19,-0.044,0.163,6.851,5.591,70,10.91,50.73
106.26,-0.027,0.295,6.847,5.588,70,10.91,50.63
106.32,-0.079,0.161,6.845,5.584,70,10.91,50.49
106.39,0.371,0.311,6.838,5.581,70,10.91,50.31
106.45,-0.05,0.37,6.837,5.582,70,10.91,50.29
106.52,0.063,0.241,6.834,5.581,70,10.91,50.18
106.58,0.19,0.197,6.831,5.578,70,10.91,50.09
106.65,0.19233147429679923,0.228,6.827,5.577,70,10.91,49.99
106.71,0.193,0.344,6.824,5.576,70,10.91,49.88
106.77,-0.008,0.332,6.82,5.573,70,10.91,49.77
106.84,0.0,0.29,6.817,5.571,63,10.91,49.65
106.9,0.002,0.277,6.814,5.569,63,10.91,49.44
106.97,-0.013,0.274,6.81,5.568,63,10.9,49.26
107.03,-0.025,0.435,6.807,5.566,63,10.9,49.17
107.1,-0.029,0.246,6.804,5.565,63,10.9,49.11
107.16,-0.029,0.199,6.802,5.564,63,10.9,49.09
107.23,-0.024,0.116,6.798,5.561,63,10.9,49.02
107.29,0.028,0.363,6.794,5.559,63,10.9,48.97
107.35,-0.034,0.376,6.792,5.559,63,10.9,48.92
107.42,-0.031,0.303,6.789,5.556,63,10.9,48.87
107.48,0.334,0.332,6.785,5.555,63,10.9,48.87
107.55,0.047,0.342,6.783,5.552,63,10.9,48.86
107.61,0.124,0.199,6.78,5.551,63,10.9,48.85
107.68,0.3,0.20402651779483602,6.777,5.55,63,10.9,48.85
107.74,0.372,0.22,6.774,5.549,63,10.9,48.84
107.81,0.041,0.386,6.77,5.546,63,10.9,48.8
107.87,-0.008,0.347,6.768,5.545,56,10.9,48.8
107.94,0.003,0.225,6.764,5.544,56,10.9,48.73
108.0,-0.008,0.329,6.762,5.541,56,10.9,48.64
108.06,-0.026,0.277,6.758,5.54,56,10.9,48.64
108.13,-0.034,0.391,6.755,5.539,56,10.9,48.66
108.19,-0.034,0.3368575085324232,6.752,5.537,56,10.9,48.67
108.26,-0.033,0.251,6.749,5.535,56,10.9,48.68
108.32,0.005,0.192,6.745,5.534,56,10.9,48.69
108.39,-0.006,0.337,6.742,5.531,56,10.9,48.7
108.45,-0.049,0.401,6.739,5.53,56,10.9,48.71
108.52,0.361,0.288,6.735,5.529,56,10.9,48.74
108.58,-0.041,0.394,6.733,5.526,56,10.9,48.76
108.65,0.067,0.223,6.729,5.525,56,10.9,48.77
108.71,0.188,0.163,6.725,5.524,56,10.9,48.78
108.77,0.366,0.228,6.723,5.521,56,10.9,48.8
108.84,0.114,0.396,6.719,5.52,56,10.9,48.86
108.9,-0.071,0.116,6.717,5.517,56,10.9,48.99
108.97,-0.072,0.28,6.713,5.516,56,10.9,49.11
109.03,-0.082,0.197,6.711,5.515,56,10.9,49.16
109.1,-0.11,0.116,6.707,5.512,56,10.9,49.29
109.16,-0.129,0.295,6.703,5.511,56,10.9,49.47
109.23,-0.14,0.116,6.701,5.509,56,10.9,49.64
109.29,-0.141,0.163,6.697,5.507,56,10.9,49.85
109.35,-0.103,0.189,6.695,5.506,56,10.9,50.0
109.42,-0.178,0.295,6.691,5.504,56,10.9,50.11
109.48,-0.059,0.168,6.688,5.501,56,10.9,50.22
109.55,0.064,0.363,6.685,5.501,56,10.9,50.36
109.61,-0.114,0.194,6.682,5.499,56,10.9,50.52
109.68,-0.035,0.13797388059701493,6.678,5.496,56,10.9,50.69
109.74,0.143,0.116,6.676,5.494,60,10.9,50.85
109.81,0.107,0.329,6.672,5.492,60,10.9,50.98
109.87,-0.191,0.383,6.668,5.491,60,10.9,51.1
109.94,-0.207,0.202,6.666,5.489,60,10.9,51.21
110.0,-0.207,0.197,6.662,5.487,60,10.9,51.27
110.06,-0.217,0.22,6.661,5.485,60,10.89,51.29
110.13,-0.224,0.306,6.656,5.484,60,10.9,51.34
110.19,-0.223,0.321,6.653,5.481,60,10.89,51.37
110.26,-0.167,0.357,6.647,5.479,60,10.89,51.38
110.32,-0.229,0.192,6.647,5.479,60,10.89,51.38
110.39,-0.215,0.264,6.643,5.477,60,10.9,51.33
110.45,0.153,0.339,6.641,5.474,60,10.89,51.26
110.52,-0.135,0.337,6.638,5.472,60,10.9,51.24
110.58,-0.053,0.197,6.635,5.469,60,10.89,51.25
110.65,0.117,0.163,6.631,5.468,65,10.89,51.25
110.71,0.17,0.244,6.628,5.467,65,10.89,51.23
110.77,-0.145,0.386,6.626,5.464,65,10.89,51.18
110.84,-0.174,0.37,6.624,5.463,65,10.89,51.11
110.9,-0.153,0.357,6.62,5.462,65,10.89,50.97
110.97,-0.149,0.298,6.618,5.459,65,10.9,50.82
111.03,-0.148,0.316,6.614,5.457,65,10.89,50.7
111.1,-0.145,0.373,6.611,5.455,65,10.89,50.61
111.16,-0.099,0.223,6.608,5.453,65,10.89,50.55
111.23,-0.098,0.347,6.605,5.452,65,10.89,50.45
111.29,-0.143,0.355,6.601,5.449,65,10.89,50.3
111.35,0.298,0.264,6.599,5.448,65,10.89,50.15
111.42,-0.128,0.386,6.595,5.447,65,10.89,50.01
111.48,0.0,0.228,6.591,5.444,65,10.89,49.93
111.55,0.129,0.244,6.589,5.443,65,10.89,49.84
111.61,0.331,0.228,6.586,5.44,65,10.88,49.74
111.68,0.095,0.378,6.583,5.438,65,10.89,49.63
111.74,-0.08,0.357,6.58,5.437,64,10.89,49.53
111.81,-0.072,0.313,6.578,5.435,64,10.89,49.44
111.87,-0.07,0.225,6.575,5.432,64,10.89,49.24
111.94,-0.084,0.254,6.571,5.432,64,10.89,49.11
112.0,-0.094,0.228,6.569,5.429,64,10.89,49.06
112.06,-0.098,0.311,6.565,5.427,64,10.88,49.0
112.13,-0.096,0.251,6.563,5.424,64,10.89,48.97
112.19,-0.04,0.225,6.56,5.424,64,10.89,48.93
112.26,-0.094,0.334,6.556,5.422,64,10.88,48.92
112.32,-0.112,0.303,6.554,5.42,64,10.89,48.87
112.39,0.264,0.28,6.55,5.418,64,10.88,48.87
112.45,-0.019,0.383,6.548,5.417,64,10.88,48.86
112.52,0.046,0.344,6.544,5.414,64,10.88,48.85
112.58,0.202,0.225,6.541,5.413,64,10.88,48.85
112.65,0.327,0.264,6.539,5.409,64,10.88,48.86
112.71,-0.002,0.311,6.537,5.409,64,10.88,48.84
112.77,-0.086,0.197,6.534,5.407,59,10.88,48.84
112.84,-0.076,0.313,6.531,5.404,59,10.88,48.8
112.9,-0.085,0.199,6.528,5.402,59,10.88,48.7
112.97,-0.103,0.246,6.524,5.4,59,10.88,48.68
113.03,-0.112,0.197,6.522,5.399,59,10.88,48.69
113.1,-0.113,0.347,6.519,5.398,59,10.88,48.7
113.16,-0.113,0.163,6.517,5.395,59,10.88,48.71
113.23,-0.058,0.161,6.513,5.394,59,10.88,48.72
113.29,-0.12,0.272,6.511,5.392,59,10.88,48.74
113.35,-0.117,0.267,6.507,5.39,59,10.88,48.75
113.42,0.228,0.404,6.504,5.388,59,10.88,48.79
113.48,-0.043,0.461,6.502,5.387,59,10.88,48.81
113.55,0.023,0.223,6.499,5.385,59,10.88,48.81
113.61,0.18,0.29213581856100107,6.496,5.382,59,10.88,48.82
113.68,0.246,0.378,6.494,5.381,59,10.88,48.84
113.74,-0.101,0.401,6.491,5.38,59,10.88,48.86
113.81,-0.167,0.277,6.488,5.377,58,10.88,48.97
113.87,-0.167,0.251,6.486,5.376,58,10.88,49.04
113.94,-0.189,0.17095098039215684,6.483,5.375,58,10.88,49.1
114.0,-0.213,0.109,6.479,5.372,58,10.88,49.26
114.06,-0.229,0.28,6.477,5.37,58,10.88,49.46
114.13,-0.239,0.199,6.474,5.368,58,10.88,49.65
114.19,-0.237,0.274,6.471,5.367,58,10.88,49.86
114.26,-0.196,0.116,6.468,5.365,58,10.88,50.0
114.32,-0.267,0.274,6.466,5.362,58,10.88,50.14
114.39,-0.19,0.293,6.464,5.361,58,10.88,50.3
114.45,0.035,0.267,6.461,5.36,58,10.88,50.49
114.52,-0.187,0.161,6.457,5.358,58,10.88,50.68
114.58,-0.108,0.161,6.456,5.356,58,10.88,50.83
114.65,0.064,0.163,6.452,5.355,58,10.88,51.0
114.71,0.071,0.194,6.45,5.352,58,10.88,51.15
114.77,-0.232,0.344,6.447,5.35,58,10.88,51.27
114.84,-0.254,0.272,6.445,5.348,58,10.88,51.39
114.9,-0.248,0.303,6.442,5.347,58,10.88,51.45
114.97,-0.253,0.233,6.439,5.345,58,10.88,51.47
115.03,-0.258,0.199,6.436,5.343,58,10.88,51.55
115.1,-0.252,0.194,6.434,5.341,58,10.88,51.63
115.16,-0.194,0.288,6.43,5.34,58,10.88,51.68
115.23,-0.257,0.251,6.427,5.338,58,10.88,51.71
115.29,-0.232,0.251,6.425,5.336,58,10.88,51.65
115.35,0.13,0.308,6.422,5.335,58,10.88,51.58
115.42,-0.153,0.329,6.42,5.332,58,10.88,51.56
115.48,-0.069,0.197,6.417,5.33,58,10.87,51.56
115.55,0.102,0.161,6.415,5.33,65,10.88,51.56
115.61,0.145,0.3,6.412,5.327,65,10.87,51.53
115.68,-0.168,0.383,6.41,5.325,65,10.87,51.47
115.74,-0.194,0.36,6.406,5.325,65,10.87,51.4
115.81,-0.177,0.274,6.404,5.322,65,10.87,51.26
115.87,-0.177,0.274,6.401,5.321,65,10.87,51.11
115.94,-0.175,0.388,6.399,5.32,65,10.87,51.0
116.0,-0.168,0.396,6.395,5.316,65,10.87,50.89
116.06,-0.109,0.22,6.392,5.315,65,10.87,50.79
116.13,-0.121,0.355,6.39,5.312,65,10.87,50.7
116.19,-0.154,0.342,6.387,5.312,65,10.87,50.54
116.26,0.28,0.318,6.385,5.31,65,10.87,50.34
116.32,-0.105,0.36,6.382,5.307,65,10.87,50.17
116.39,0.011,0.36,6.38,5.307,65,10.87,50.05
116.45,0.153,0.161,6.376,5.305,65,10.87,49.93
116.52,0.343,0.22,6.374,5.304,65,10.87,49.8
116.58,0.073,0.373,6.371,5.303,65,10.87,49.67
116.65,-0.073,0.36,6.369,5.299,64,10.87,49.54
116.71,-0.061,0.376,6.366,5.298,64,10.87,49.41
116.77,-0.059,0.376,6.364,5.296,64,10.85,49.18
116.84,-0.072,0.293,6.362,5.294,64,10.87,49.01
116.9,-0.079,0.199,6.358,5.293,64,10.87,48.93
116.97,-0.08,0.308,6.355,5.29,64,10.87,48.86
117.03,-0.076,0.269,6.353,5.289,64,10.85,48.83
117.1,-0.018,0.225,6.35,5.288,64,10.87,48.8
117.16,-0.079,0.254,6.348,5.286,64,10.87,48.77
117.23,-0.082,0.306,6.345,5.285,64,10.85,48.74
117.29,0.279,0.28,6.343,5.283,64,10.85,48.74
117.35,-0.001,0.342,6.34,5.281,64,10.85,48.75
117.42,0.073,0.316,6.338,5.279,64,10.85,48.75
117.48,0.241,0.28073630831643,6.335,5.278,64,10.85,48.75
117.55,0.329,0.259,6.333,5.275,64,10.85,48.75
117.61,-0.008,0.288,6.33,5.274,64,10.85,48.75
117.68,-0.071,0.197,6.328,5.271,59,10.85,48.75
117.74,-0.063,0.197,6.325,5.27,59,10.85,48.7
117.81,-0.075,0.401,6.323,5.268,59,10.85,48.6
117.87,-0.093,0.329,6.32,5.266,59,10.85,48.6
117.94,-0.1,0.249,6.317,5.265,59,10.85,48.61
118.0,-0.107,0.251,6.314,5.263,59,10.85,48.62
118.06,-0.113,0.197,6.312,5.261,59,10.85,48.64
118.13,-0.065,0.144741935483871,6.309,5.26,59,10.85,48.67
118.19,-0.111,0.116,6.307,5.258,59,10.85,48.78
118.26,-0.144,0.404,6.304,5.256,59,10.85,48.94
118.32,0.229,0.303,6.302,5.255,59,10.85,49.14
118.39,-0.078,0.29,6.299,5.254,59,10.85,49.33
118.45,-0.006,0.199,6.297,5.251,59,10.85,49.49
118.52,0.128,0.22343863801893665,6.294,5.25,59,10.85,49.66
118.58,0.267,0.28,6.292,5.248,59,10.85,49.82
118.65,-0.102,0.401,6.289,5.246,59,10.85,49.96
118.71,-0.161,0.401,6.288,5.245,57,10.85,50.1
118.77,-0.157,0.197,6.285,5.243,57,10.85,50.17
118.84,-0.173,0.13824815905743743,6.283,5.241,57,10.85,50.24
118.9,-0.189,0.116,6.279,5.24,57,10.85,50.36
118.97,-0.203,0.313,6.274,5.236,57,10.85,50.68
119.03,-0.202,0.225,6.274,5.235,57,10.85,50.7
119.1,-0.148,0.295,6.273,5.234,57,10.85,50.87
119.16,-0.202,0.376,6.27,5.233,57,10.85,50.96
119.23,-0.219,0.267,6.268,5.23,57,10.85,51.01
119.29,0.179,0.308,6.266,5.23,57,10.85,51.09
119.35,-0.122,0.399,6.262,5.228,57,10.85,51.21
119.42,-0.048,0.199,6.261,5.228,57,10.85,51.32
119.48,0.104,0.21326039697542534,6.257,5.224,62,10.85,51.39
119.55,0.194,0.249,6.255,5.223,62,10.85,51.45
119.61,-0.119,0.35,6.253,5.22,62,10.85,51.44
119.68,-0.174,0.293,6.251,5.219,62,10.85,51.43
119.74,-0.162,0.254,6.248,5.218,62,10.85,51.35
119.81,-0.166,0.329,6.246,5.215,62,10.85,51.22
119.87,-0.167,0.376,6.243,5.215,62,10.85,51.15
119.94,-0.158,0.321,6.241,5.213,62,10.85,51.09
120.0,-0.089,0.111,6.238,5.211,62,10.85,51.04
120.06,-0.141,0.293,6.235,5.211,62,10.85,50.99
120.13,-0.157,0.288,6.232,5.208,62,10.85,50.88
120.19,0.249,0.293,6.231,5.206,62,10.85,50.71
120.26,-0.052,0.313,6.227,5.206,62,10.85,50.59
120.32,0.028,0.277,6.225,5.203,62,10.85,50.45
120.39,0.193,0.228,6.222,5.201,62,10.85,50.33
120.45,0.316,0.223,6.22,5.199,62,10.85,50.2
120.52,-0.004,0.378,6.218,5.198,62,10.85,50.04
120.58,-0.074,0.401,6.215,5.196,66,10.85,49.9
120.65,-0.056,0.344,6.213,5.194,66,10.85,49.72
120.71,-0.059,0.199,6.211,5.193,66,10.85,49.5
120.77,-0.069,0.376,6.208,5.191,66,10.85,49.34
120.84,-0.072,0.251,6.205,5.189,66,10.85,49.26
120.9,-0.072,0.163,6.202,5.188,66,10.85,49.16
120.97,-0.064,0.352,6.2,5.186,66,10.85,49.07
121.03,-0.068,0.352,6.198,5.186,66,10.85,49.0
121.1,-0.087,0.342,6.195,5.183,66,10.85,48.92
121.16,0.321,0.329,6.193,5.182,66,10.85,48.86
121.23,-0.051,0.394,6.191,5.179,66,10.85,48.84
121.29,0.051,0.3,6.186,5.177,66,10.85,48.81
121.35,0.187,0.26378848063555116,6.185,5.177,66,10.85,48.81
121.42,0.373,0.249,6.184,5.176,66,10.85,48.81
121.48,0.11,0.368,6.181,5.173,66,10.85,48.79
121.55,-0.044,0.313,6.179,5.172,66,10.85,48.78
121.61,-0.035,0.254,6.175,5.171,66,10.85,48.76
121.68,-0.036,0.249,6.174,5.168,66,10.85,48.65
121.74,-0.052,0.308,6.171,5.166,66,10.85,48.6
121.81,-0.058,0.285,6.168,5.166,60,10.85,48.63
121.87,-0.058,0.202,6.166,5.163,60,10.85,48.63
121.94,-0.056,0.274,6.164,5.161,60,10.84,48.64
122.0,-0.02,0.246,6.161,5.159,60,10.84,48.65
122.06,-0.024,0.295,6.158,5.158,60,10.84,48.68
122.13,-0.065,0.293,6.156,5.157,60,10.84,48.68
122.19,-0.02,0.376,6.153,5.156,60,10.84,48.71
122.26,0.002,0.376,6.151,5.154,60,10.84,48.74
122.32,0.052,0.368,6.149,5.152,60,10.84,48.74
122.39,0.166,0.22,6.146,5.151,60,10.84,48.76
122.45,0.346,0.111,6.144,5.148,60,10.84,48.77
122.52,0.132,0.37,6.139,5.146,60,10.84,48.76
122.58,-0.079,0.228,6.14,5.147,60,10.84,48.76
122.65,-0.1,0.23,6.136,5.143,46,10.84,48.79
122.71,-0.108,0.23,6.134,5.143,46,10.84,48.81
122.77,-0.129,0.166,6.131,5.141,46,10.84,48.95
122.84,-0.149,0.357,6.129,5.139,46,10.84,49.18
122.9,-0.163,0.228,6.126,5.138,46,10.84,49.39
122.97,-0.172,0.199,6.121,5.135,46,10.84,49.78
123.03,-0.155,0.274,6.121,5.136,46,10.84,49.79
123.1,-0.153,0.197,6.119,5.133,46,10.84,49.9
123.16,-0.213,0.194,6.118,5.131,46,10.84,50.03
123.23,0.195,0.251,6.115,5.129,46,10.84,50.21
123.29,-0.22,0.386,6.113,5.128,46,10.84,50.41
123.35,-0.116,0.218,6.11,5.126,46,10.84,50.58
123.42,-0.013,0.119,6.108,5.126,46,10.84,50.74
123.48,0.163,0.116,6.105,5.124,46,10.84,50.88
123.55,0.0,0.412,6.103,5.121,46,10.84,51.03
123.61,-0.209,0.329,6.1,5.12,46,10.84,51.16
123.68,-0.2,0.119,6.098,5.119,46,10.84,51.26
123.74,-0.194,0.116,6.097,5.116,46,10.84,51.31
123.81,-0.2,0.116,6.093,5.116,46,10.84,51.39
123.87,-0.198,0.116,6.092,5.114,46,10.84,51.51
123.94,-0.189,0.391,6.089,5.111,46,10.84,51.58
124.0,-0.129,0.347,6.087,5.11,46,10.84,51.63
124.06,-0.184,0.391,6.084,5.109,46,10.84,51.63
124.13,-0.143,0.295,6.082,5.107,46,10.84,51.56
124.19,0.199,0.298,6.079,5.106,46,10.84,51.51
124.26,-0.072,0.329,6.077,5.104,46,10.83,51.5
124.32,0.014,0.363,6.074,5.102,46,10.84,51.5
124.39,0.185,0.274,6.072,5.101,46,10.83,51.47
124.45,0.228,0.303,6.069,5.099,46,10.84,51.42
124.52,-0.075,0.36,6.067,5.097,46,10.83,51.33
124.58,-0.101,0.313,6.064,5.096,64,10.83,51.24
124.65,-0.083,0.197,6.062,5.094,64,10.83,51.06
124.71,-0.083,0.355,6.061,5.094,64,10.83,50.84
124.77,-0.083,0.295,6.057,5.091,64,10.83,50.7
124.84,-0.077,0.342,6.054,5.09,64,10.83,50.6
124.9,-0.061,0.293,6.053,5.089,64,10.83,50.52
124.97,-0.003,0.316,6.051,5.087,64,10.83,50.44
125.03,-0.059,0.313,6.048,5.086,64,10.83,50.3
125.1,0.011,0.339,6.046,5.084,64,10.83,50.14
125.16,0.033,0.347,6.043,5.082,64,10.83,50.01
125.23,0.056,0.29,6.039,5.081,64,10.83,49.92
125.29,0.151,0.288,6.037,5.079,64,10.83,49.82
125.35,0.345,0.293,6.034,5.077,64,10.83,49.72
125.42,0.365,0.298,6.031,5.075,64,10.83,49.49
125.48,0.05,0.293,6.031,5.074,64,10.83,49.48
125.55,0.033,0.293,6.028,5.072,64,10.83,49.37
125.61,0.044,0.306,6.027,5.071,64,10.83,49.19
125.68,0.035,0.311,6.024,5.07,64,10.83,48.99
125.74,0.027,0.186,6.022,5.067,64,10.83,48.89
125.81,0.027,0.114,6.017,5.064,64,10.83,48.8
125.87,0.025,0.116,6.016,5.065,64,10.83,48.8
125.94,0.03,0.29,6.014,5.064,64,10.83,48.77
126.0,0.083,0.194,6.012,5.061,64,10.83,48.74
126.06,0.027,0.313,6.011,5.061,64,10.83,48.73
126.13,0.013,0.386,6.007,5.059,64,10.83,48.71
126.19,0.378,0.298,6.006,5.057,64,10.83,48.72
126.26,0.091,0.386,6.004,5.056,64,10.83,48.72
126.32,0.16,0.166,6.001,5.055,64,10.83,48.72
126.39,0.325,0.2515,5.999,5.054,64,10.83,48.73
126.45,0.24091467780429596,0.337,5.996,5.051,64,10.83,48.73
126.52,0.113,0.329,5.994,5.05,64,10.83,48.72
126.58,0.036,0.326,5.992,5.047,64,10.83,48.73
126.65,0.05,0.272,5.99,5.046,64,10.83,48.68
126.71,0.04,0.316,5.989,5.045,64,10.83,48.58
126.77,0.015,0.251,5.985,5.044,64,10.83,48.57
126.84,-0.001,0.288,5.984,5.041,64,10.83,48.59
126.9,-0.015,0.163,5.981,5.041,64,10.83,48.59
126.97,-0.028,0.295,5.979,5.039,64,10.83,48.63
127.03,-0.025,0.225,5.976,5.038,64,10.83,48.77
127.1,0.005,0.332,5.974,5.037,64,10.83,48.97
127.16,-0.065,0.376,5.971,5.035,64,10.83,49.16
127.23,0.143,0.282,5.97,5.034,64,10.83,49.35
127.29,0.099,0.365,5.967,5.032,64,10.83,49.55
127.35,0.003,0.197,5.965,5.03,64,10.83,49.72
127.42,0.087,0.254,5.962,5.029,64,10.83,49.88
127.48,0.259,0.197,5.961,5.027,64,10.83,50.05
127.55,0.211,0.282,5.959,5.027,64,10.82,50.23
127.61,-0.086,0.373,5.956,5.024,73,10.83,50.39
127.68,-0.109,0.274,5.955,5.023,73,10.83,50.54
127.74,-0.112,0.116,5.952,5.022,73,10.82,50.63
127.81,-0.13,0.254,5.95,5.02,73,10.82,50.75
127.87,-0.14,0.35,5.947,5.019,73,10.82,50.91
127.94,-0.148,0.277,5.946,5.017,73,10.82,51.05
128.0,-0.104,0.168,5.944,5.014,73,10.82,51.23
128.06,-0.133,0.23128199052132697,5.941,5.014,73,10.82,51.37
128.13,-0.165,0.308,5.939,5.012,73,10.82,51.45
128.19,0.259,0.326,5.936,5.01,73,10.82,51.48
128.26,-0.127,0.381,5.934,5.009,73,10.82,51.55
128.32,-0.028,0.295,5.932,5.007,73,10.82,51.63
128.39,0.095,0.228,5.929,5.007,63,10.82,51.71
128.45,0.258,0.161,5.927,5.004,63,10.82,51.74
128.52,-0.011,0.383,5.925,5.003,63,10.82,51.74
128.58,-0.137,0.332,5.924,5.002,63,10.82,51.74
128.65,-0.127,0.228,5.921,5.0,63,10.81,51.69
128.71,-0.129,0.192,5.919,4.999,63,10.81,51.57
128.77,-0.13,0.308,5.917,4.997,63,10.81,51.47
128.84,-0.128,0.228,5.914,4.995,63,10.82,51.4
128.9,-0.071,0.218,5.912,4.994,63,10.82,51.35
128.97,-0.081,0.383,5.909,4.992,63,10.81,51.29
129.03,-0.114,0.368,5.908,4.992,63,10.81,51.17
129.1,0.333,0.313,5.905,4.989,63,10.82,50.98
129.16,-0.066,0.357,5.903,4.988,63,10.82,50.79
129.23,0.048,0.295,5.9,4.987,63,10.81,50.61
129.29,0.186,0.223,5.898,4.984,63,10.81,50.45
129.35,0.377,0.114,5.895,4.983,63,10.81,50.28
129.42,0.127,0.355,5.894,4.982,63,10.81,50.11
129.48,-0.024,0.344,5.892,4.979,66,10.81,49.98
129.55,-0.015,0.316,5.889,4.979,66,10.81,49.84
129.61,-0.015,0.363,5.887,4.977,66,10.81,49.59
129.68,-0.029,0.347,5.884,4.975,66,10.81,49.39
129.74,-0.037,0.223,5.882,4.974,66,10.81,49.27
129.81,-0.018,0.249,5.879,4.972,66,10.81,49.15
129.87,0.0,0.251,5.878,4.972,66,10.81,49.06
129.94,-0.001,0.373,5.875,4.969,66,10.81,48.99
130.0,-0.065,0.332,5.873,4.968,66,10.81,48.93
130.06,0.332,0.272,5.872,4.967,66,10.81,48.88
130.13,-0.044,0.432,5.868,4.963,66,10.81,48.81
130.19,0.042,0.293,5.868,4.962,66,10.81,48.81
130.26,0.149,0.249,5.864,4.962,66,10.81,48.78
130.32,0.352,0.155,5.863,4.96,66,10.81,48.77
130.39,0.215,0.355,5.859,4.959,66,10.81,48.76
130.45,-0.032,0.311,5.858,4.957,66,10.81,48.74
130.52,-0.034,0.228,5.855,4.955,60,10.81,48.76
130.58,-0.035,0.166,5.854,4.954,60,10.81,48.64
130.65,-0.055,0.313,5.85,4.952,60,10.81,48.58
130.71,-0.07,0.228,5.849,4.951,60,10.81,48.58
130.77,-0.079,0.161,5.847,4.95,60,10.81,48.59
130.84,-0.083,0.254,5.844,4.948,60,10.81,48.6
130.9,-0.048,0.313,5.843,4.947,60,10.81,48.62
130.97,-0.065,0.388,5.839,4.945,60,10.81,48.62
131.03,-0.11,0.274,5.838,4.943,60,10.81,48.61
131.1,0.3,0.256,5.837,4.942,60,10.81,48.63
131.16,-0.102,0.355,5.834,4.941,60,10.81,48.65
131.23,0.008,0.251,5.832,4.94,60,10.81,48.68
131.29,0.13,0.119,5.83,4.938,60,10.81,48.7
131.35,0.318,0.212,5.828,4.937,60,10.81,48.74
131.42,0.095,0.363,5.826,4.935,60,10.81,48.73
131.48,-0.095,0.311,5.825,4.933,59,10.81,48.73
131.55,-0.098,0.163,5.822,4.932,59,10.81,48.73
131.61,-0.11,0.228,5.82,4.93,59,10.81,48.62
131.68,-0.148,0.197,5.817,4.928,59,10.81,48.62
131.74,-0.157,0.197,5.815,4.927,59,10.81,48.77
131.81,-0.167,0.161,5.812,4.926,59,10.81,48.99
131.87,-0.162,0.202,5.811,4.925,59,10.81,49.24
131.94,-0.133,0.116,5.808,4.923,59,10.81,49.42
132.0,-0.203,0.274,5.803,4.92,59,10.81,49.71
132.06,-0.002,0.256,5.805,4.921,59,10.81,49.73
132.13,-0.029,0.368,5.802,4.918,59,10.81,49.93
132.19,-0.125,0.293,5.801,4.917,59,10.81,50.14
132.26,-0.038,0.197,5.798,4.916,60,10.81,50.34
132.32,0.137,0.202,5.797,4.915,60,10.81,50.54
132.39,0.091,0.326,5.795,4.912,60,10.81,50.73
132.45,-0.199,0.386,5.792,4.911,60,10.81,50.9
132.52,-0.213,0.36,5.79,4.91,60,10.81,51.07
132.58,-0.212,0.347,5.788,4.907,60,10.81,51.19
132.65,-0.222,0.3365576362879734,5.787,4.907,60,10.81,51.32
132.71,-0.228,0.3277232625884311,5.783,4.906,60,10.81,51.5
132.77,-0.17,0.324,5.782,4.905,60,10.81,51.67
132.84,-0.23,0.399,5.78,4.902,60,10.81,51.81
132.9,-0.252,0.303,5.777,4.9,60,10.81,51.91
132.97,0.167,0.295,5.776,4.9,60,10.81,51.9
133.03,-0.157,0.223,5.773,4.898,60,10.81,51.86
133.1,-0.079,0.163,5.772,4.897,60,10.81,51.85
133.16,0.069,0.26668016759776536,5.77,4.895,69,10.81,51.86
133.23,0.185,0.373,5.767,4.893,69,10.81,51.86
133.29,-0.121,0.376,5.765,4.892,69,10.79,51.84
133.35,-0.186,0.316,5.763,4.89,69,10.79,51.79
133.42,-0.176,0.274,5.762,4.89,69,10.79,51.72
133.48,-0.183,0.225,5.76,4.887,69,10.79,51.59
133.55,-0.185,0.228,5.757,4.886,69,10.79,51.49
133.61,-0.13,0.254,5.755,4.885,69,10.79,51.43
133.68,-0.16,0.326,5.752,4.883,69,10.79,51.41
133.74,-0.188,0.308,5.75,4.882,69,10.79,51.41
133.81,0.262,0.269,5.748,4.88,69,10.79,51.36
133.87,-0.138,0.355,5.746,4.878,69,10.79,51.26
133.94,-0.021,0.332,5.745,4.877,69,10.79,51.2
134.0,0.115,0.364,5.743,4.876,70,10.79,51.15
134.06,0.041,0.396,5.74,4.875,70,10.79,51.11
134.13,-0.04,0.394,5.739,4.872,70,10.79,51.03
134.19,-0.103,0.36,5.736,4.871,70,10.79,50.93
134.26,-0.087,0.329,5.734,4.87,70,10.79,50.79
134.32,-0.083,0.404,5.733,4.87,70,10.79,50.58
134.39,-0.087,0.347,5.728,4.866,70,10.79,50.3
134.45,-0.084,0.254,5.729,4.865,70,10.79,50.28
134.52,-0.056,0.316,5.725,4.865,70,10.79,50.18
134.58,-0.021,0.414,5.724,4.862,70,10.79,50.12
134.65,-0.085,0.293,5.721,4.862,70,10.78,50.02
134.71,0.263,0.228,5.719,4.86,70,10.79,49.9
134.77,0.014,0.435,5.718,4.859,70,10.78,49.78
134.84,0.04,0.378,5.715,4.858,70,10.78,49.67
134.9,0.148,0.308,5.713,4.856,70,10.78,49.59
134.97,0.35,0.163,5.711,4.855,70,10.79,49.49
135.03,0.239,0.36,5.709,4.853,70,10.78,49.39
135.1,-0.017,0.199,5.706,4.851,70,10.78,49.27
135.16,-0.018,0.329,5.705,4.85,65,10.78,49.16
135.23,-0.014,0.23,5.703,4.85,65,10.78,48.96
135.29,-0.031,0.329,5.701,4.848,65,10.78,48.81
135.35,-0.041,0.298,5.699,4.846,65,10.78,48.75
135.42,-0.046,0.22,5.698,4.845,65,10.78,48.71
135.48,-0.046,0.29,5.695,4.844,65,10.78,48.7
135.55,-0.018,0.272,5.693,4.843,65,10.78,48.69
135.61,-0.007,0.274,5.69,4.841,65,10.78,48.67
135.68,-0.059,0.36,5.689,4.84,65,10.78,48.66
135.74,0.288,0.269,5.686,4.838,65,10.78,48.67
135.81,0.016,0.396,5.684,4.838,65,10.78,48.69
135.87,0.056,0.332,5.683,4.835,65,10.78,48.7
135.94,0.162,0.313,5.681,4.834,65,10.78,48.7
136.0,0.354,0.228,5.679,4.833,65,10.78,48.7
136.06,0.252,0.308,5.678,4.831,65,10.78,48.69
136.13,-0.014,0.274,5.675,4.83,65,10.78,48.69
136.19,-0.021,0.285,5.674,4.829,58,10.78,48.69
136.26,-0.027,0.254,5.673,4.828,58,10.78,48.59
136.32,-0.053,0.254,5.67,4.825,58,10.78,48.53
136.39,-0.071,0.228,5.668,4.824,58,10.78,48.55
136.45,-0.081,0.274,5.665,4.823,58,10.78,48.61
136.52,-0.087,0.277,5.664,4.823,58,10.78,48.8
136.58,-0.085,0.254,5.663,4.82,58,10.78,48.97
136.65,-0.049,0.285,5.66,4.819,58,10.78,49.12
136.71,-0.121,0.363,5.659,4.818,58,10.78,49.27
136.77,-0.066,0.308,5.658,4.816,58,10.78,49.46
136.84,0.19,0.344,5.656,4.815,58,10.78,49.65
136.9,-0.057,0.293,5.654,4.814,58,10.78,49.83
136.97,0.015,0.29421322054118537,5.653,4.813,58,10.78,50.0
137.03,0.181,0.29831532997125965,5.652,4.81,57,10.78,50.18
137.1,0.218,0.306,5.651,4.81,57,10.78,50.35
137.16,-0.105,0.391,5.648,4.808,57,10.78,50.49
137.23,-0.148,0.347,5.647,4.808,57,10.78,50.63
137.29,-0.15,0.363,5.646,4.805,57,10.78,50.71
137.35,-0.165,0.254,5.643,4.804,57,10.78,50.8
137.42,-0.179,0.199,5.641,4.803,57,10.78,50.94
137.48,-0.186,0.313,5.639,4.801,57,10.78,51.09
137.55,-0.138,0.202,5.638,4.8,57,10.78,51.27
137.61,-0.185,0.264,5.636,4.799,57,10.78,51.44
137.68,-0.214,0.344,5.633,4.798,57,10.78,51.5
137.74,0.209,0.308,5.632,4.796,57,10.78,51.52
137.81,-0.147,0.293,5.631,4.795,57,10.78,51.57
137.87,-0.061,0.194,5.628,4.793,57,10.78,51.63
137.94,0.075,0.274,5.626,4.793,64,10.77,51.68
138.0,0.226,0.22,5.624,4.79,64,10.77,51.72
138.06,-0.069,0.407,5.623,4.79,64,10.77,51.72
138.13,-0.174,0.386,5.621,4.788,64,10.77,51.69
138.19,-0.168,0.199,5.619,4.786,64,10.78,51.63
138.26,-0.176,0.228,5.617,4.785,64,10.77,51.51
138.32,-0.182,0.388,5.614,4.784,64,10.77,51.42
138.39,-0.183,0.363,5.612,4.783,64,10.78,51.35
138.45,-0.134,0.22,5.611,4.78,64,10.77,51.3
138.52,-0.148,0.329,5.608,4.779,64,10.77,51.28
138.58,-0.188,0.332,5.607,4.778,64,10.77,51.2
138.65,0.273,0.326,5.606,4.776,64,10.77,51.07
138.71,-0.165,0.329,5.603,4.775,64,10.77,50.95
138.77,-0.038,0.295,5.601,4.773,64,10.77,50.86
138.84,0.091,0.202,5.598,4.773,64,10.77,50.77
138.9,0.291,0.228,5.597,4.772,64,10.77,50.64
138.97,0.069,0.272,5.594,4.771,64,10.77,50.49
139.03,-0.105,0.272,5.593,4.768,65,10.77,50.3
139.1,-0.092,0.308,5.591,4.767,65,10.77,50.15
139.16,-0.089,0.295,5.588,4.766,65,10.77,49.92
139.23,-0.102,0.332,5.586,4.766,65,10.77,49.73
139.29,-0.105,0.329,5.584,4.764,65,10.76,49.6
139.35,-0.105,0.267,5.582,4.763,65,10.77,49.47
139.42,-0.07,0.376,5.579,4.761,65,10.77,49.38
139.48,-0.07,0.373,5.577,4.759,65,10.77,49.27
139.55,-0.123,0.293,5.576,4.758,65,10.76,49.15
139.61,0.318,0.288,5.573,4.757,65,10.77,49.06
139.68,-0.124,0.334,5.571,4.756,65,10.77,49.0
139.74,-0.002,0.313,5.569,4.754,65,10.77,48.92
139.81,0.113,0.277,5.568,4.753,65,10.76,48.86
139.87,0.314,0.155,5.566,4.751,65,10.76,48.82
139.94,0.127,0.326,5.564,4.749,65,10.77,48.78
140.0,-0.094,0.36,5.562,4.748,62,10.77,48.74
140.06,-0.088,0.269,5.561,4.748,62,10.77,48.7
140.13,-0.088,0.163,5.559,4.746,62,10.76,48.6
140.19,-0.108,0.313,5.556,4.744,62,10.76,48.55
140.26,-0.121,0.386,5.555,4.743,62,10.76,48.54
140.32,-0.126,0.373,5.552,4.742,62,10.77,48.53
140.39,-0.126,0.254,5.551,4.741,62,10.76,48.54
140.45,-0.075,0.119,5.549,4.738,62,10.76,48.57
140.52,-0.118,0.36,5.546,4.737,62,10.76,48.58
140.58,-0.147,0.293,5.545,4.736,62,10.76,48.58
140.65,0.235,0.326,5.544,4.736,62,10.76,48.6
140.71,-0.077,0.438,5.541,4.733,62,10.76,48.63
140.77,-0.005,0.29,5.539,4.733,62,10.76,48.64
140.84,0.136,0.30262093690248565,5.537,4.731,62,10.77,48.64
140.9,0.302,0.329,5.535,4.729,62,10.76,48.65
140.97,0.007,0.37,5.534,4.728,62,10.76,48.65
141.03,-0.118,0.329,5.531,4.727,59,10.76,48.65
141.1,-0.108,0.293,5.529,4.726,59,10.76,48.62
141.16,-0.119,0.274,5.529,4.726,59,10.76,48.51
141.23,-0.143,0.199,5.526,4.723,59,10.76,48.49
141.29,-0.154,0.116,5.524,4.721,59,10.76,48.6
141.35,-0.171,0.197,5.522,4.721,59,10.76,48.74
141.42,-0.171,0.197,5.52,4.719,59,10.76,48.89
141.48,-0.13,0.422,5.519,4.718,59,10.76,49.05
141.55,-0.182,0.274,5.516,4.716,59,10.76,49.19
141.61,-0.216,0.308,5.515,4.716,59,10.76,49.35
141.68,0.167,0.329,5.511,4.713,59,10.76,49.77
141.74,-0.158,0.334,5.511,4.713,59,10.76,49.8
141.81,-0.093,0.199,5.509,4.711,59,10.76,49.98
141.87,0.04,0.20406896551724138,5.507,4.711,58,10.76,50.15
141.94,0.182,0.22,5.506,4.709,58,10.76,50.35
142.0,-0.116,0.37,5.504,4.707,58,10.76,50.52
142.06,-0.227,0.161,5.501,4.706,58,10.76,50.7
142.13,-0.221,0.332,5.5,4.706,58,10.76,50.82
142.19,-0.232,0.199,5.499,4.703,58,10.76,50.9
142.26,-0.236,0.197,5.496,4.702,58,10.76,51.04
142.32,-0.237,0.199,5.494,4.701,58,10.76,51.2
142.39,-0.178,0.225,5.492,4.701,58,10.76,51.37
142.45,-0.236,0.295,5.49,4.698,58,10.76,51.53
142.52,-0.256,0.376,5.486,4.696,58,10.76,51.65
142.58,0.159,0.293,5.486,4.696,58,10.76,51.66
142.65,-0.167,0.295,5.485,4.696,58,10.76,51.71
142.71,-0.095,0.119,5.484,4.693,58,10.76,51.78
142.77,0.118,0.249,5.481,4.693,67,10.76,51.85
142.84,0.114,0.249,5.48,4.689,67,10.76,51.86
142.9,-0.143,0.383,5.478,4.688,67,10.76,51.85
142.97,-0.212,0.386,5.475,4.688,67,10.76,51.82
143.03,-0.209,0.334,5.474,4.687,67,10.76,51.73
143.1,-0.218,0.347,5.472,4.685,67,10.76,51.51
143.16,-0.223,0.329,5.47,4.685,67,10.76,51.51
143.23,-0.179,0.373,5.468,4.684,67,10.76,51.43
143.29,-0.178,0.373,5.467,4.682,67,10.76,51.4
143.35,-0.22,0.414,5.464,4.681,67,10.76,51.35
143.42,0.071,0.293,5.462,4.679,67,10.76,51.25
143.48,-0.053,0.399,5.462,4.677,67,10.76,51.11
143.55,-0.09,0.363,5.458,4.674,67,10.76,50.92
143.61,0.02,0.282,5.457,4.676,68,10.76,50.91
143.68,0.223,0.163,5.454,4.674,68,10.76,50.84
143.74,0.149,0.432,5.453,4.674,68,10.76,50.74
143.81,-0.103,0.386,5.45,4.672,68,10.76,50.6
143.87,-0.095,0.347,5.449,4.671,68,10.76,50.44
143.94,-0.075,0.223,5.448,4.67,68,10.76,50.22
144.0,-0.077,0.225,5.445,4.669,68,10.76,50.04
144.06,-0.076,0.277,5.443,4.666,68,10.76,49.91
144.13,-0.071,0.228,5.442,4.666,68,10.76,49.79
144.19,-0.063,0.199,5.439,4.664,68,10.76,49.69
144.26,0.0,0.326,5.437,4.662,68,10.76,49.6
144.32,-0.056,0.326,5.437,4.661,68,10.76,49.45
144.39,-0.064,0.298,5.434,4.659,68,10.76,49.32
144.45,0.327,0.365,5.432,4.659,68,10.76,49.21
144.52,0.033,0.357,5.43,4.659,68,10.76,49.12
144.58,0.106,0.225,5.429,4.656,68,10.76,49.03
144.65,0.272,0.119,5.427,4.656,68,10.76,48.95
144.71,0.1958519108280255,0.293,5.424,4.654,68,10.76,48.88
144.77,0.078,0.409,5.423,4.654,68,10.76,48.81
144.84,0.003,0.329,5.422,4.651,68,10.76,48.79
144.9,0.021,0.122,5.419,4.651,68,10.76,48.71
144.97,0.016,0.293,5.418,4.649,68,10.76,48.59
145.03,0.004,0.329,5.417,4.647,68,10.76,48.56
145.1,0.0,0.316,5.414,4.646,68,10.76,48.57
145.16,0.0,0.313,5.412,4.644,68,10.76,48.57
145.23,0.01,0.326,5.41,4.644,68,10.76,48.58
145.29,0.061,0.288,5.409,4.641,68,10.76,48.58
145.35,0.0,0.225,5.405,4.641,68,10.76,48.59
145.42,0.032,0.306,5.403,4.64,68,10.76,48.65
145.48,0.35,0.324,5.403,4.639,68,10.76,48.65
145.55,0.089,0.313,5.402,4.637,68,10.76,48.66
145.61,0.169,0.228,5.399,4.636,68,10.76,48.65
145.68,0.343,0.114,5.398,4.636,68,10.76,48.67
145.74,0.23183328285887345,0.326,5.397,4.634,68,10.76,48.68
145.81,0.088,0.394,5.394,4.632,68,10.76,48.68
145.87,0.041,0.373,5.393,4.631,68,10.76,48.68
145.94,0.056,0.223,5.392,4.63,68,10.76,48.62
146.0,0.042,0.14868587896253604,5.39,4.629,68,10.76,48.53
146.06,0.025,0.116,5.387,4.627,68,10.76,48.57
146.13,0.019,0.228,5.387,4.626,68,10.76,48.68
146.19,0.014,0.246,5.385,4.625,68,10.76,48.75
146.26,0.012,0.329,5.382,4.624,68,10.76,48.81
146.32,0.058,0.2875,5.381,4.622,68,10.76,48.91
146.39,-0.009,0.246,5.38,4.621,68,10.76,49.05
146.45,-0.024,0.357,5.377,4.62,68,10.76,49.19
146.52,0.33,0.3,5.376,4.619,68,10.76,49.36
146.58,0.039,0.357,5.375,4.617,68,10.76,49.51
146.65,0.098,0.249,5.372,4.616,68,10.76,49.65
146.71,0.242,0.25550000000000006,5.37,4.614,68,10.76,49.81
146.77,0.335,0.262,5.37,4.614,68,10.76,49.97
146.84,0.007,0.22,5.367,4.612,68,10.76,50.09
146.9,-0.065,0.197,5.366,4.611,57,10.76,50.22
146.97,-0.064,0.199,5.365,4.609,57,10.76,50.3
147.03,-0.085,0.29,5.362,4.609,57,10.76,50.37
147.1,-0.101,0.344,5.361,4.607,57,10.76,50.5
147.16,-0.11,0.326,5.358,4.606,57,10.76,50.65
147.23,-0.066,0.163,5.357,4.604,57,10.76,50.8
147.29,-0.099,0.29,5.356,4.604,57,10.76,50.96
147.35,-0.133,0.365,5.353,4.601,57,10.76,51.04
147.42,0.279,0.272,5.352,4.601,57,10.76,51.11
147.48,-0.096,0.269,5.35,4.6,57,10.76,51.21
147.55,0.001,0.228,5.348,4.599,57,10.76,51.34
147.61,0.126,0.163,5.347,4.597,57,10.76,51.46
147.68,0.287,0.215,5.346,4.597,57,10.76,51.53
147.74,0.02,0.383,5.343,4.595,57,10.76,51.57
147.81,-0.1,0.409,5.342,4.594,57,10.76,51.57
147.87,-0.088,0.269,5.34,4.593,57,10.76,51.53
147.94,-0.092,0.228,5.338,4.592,57,10.76,51.42
148.0,-0.094,0.344,5.337,4.59,57,10.76,51.31
148.06,-0.085,0.316,5.335,4.589,57,10.76,51.23
148.13,-0.013,0.36,5.333,4.588,57,10.76,51.16
148.19,-0.074,0.376,5.331,4.585,57,10.76,51.09
148.26,0.191,0.313,5.33,4.585,57,10.76,50.96
148.32,0.215,0.313,5.327,4.584,57,10.76,50.76
148.39,0.022,0.344,5.326,4.582,57,10.76,50.57
148.45,0.099,0.199,5.325,4.582,57,10.76,50.42
148.52,0.266,0.116,5.322,4.58,57,10.76,50.31
148.58,0.371,0.332,5.321,4.578,57,10.76,50.04
148.65,0.051,0.386,5.321,4.577,57,10.76,50.02
148.71,-0.007,0.401,5.317,4.577,72,10.76,49.9
148.77,0.008,0.35,5.315,4.575,72,10.76,49.72
148.84,0.0,0.124,5.315,4.574,72,10.74,49.5
148.9,-0.012,0.228,5.312,4.573,72,10.76,49.36
148.97,-0.017,0.163,5.31,4.572,72,10.74,49.27
149.03,-0.017,0.324,5.308,4.569,72,10.76,49.17
149.1,0.045,0.378,5.306,4.569,72,10.74,49.11
149.16,-0.007,0.355,5.305,4.568,72,10.74,49.01
149.23,-0.032,0.321,5.304,4.567,72,10.74,48.92
149.29,0.348,0.282,5.303,4.565,72,10.74,48.85
149.35,0.053,0.313,5.3,4.564,72,10.74,48.82
149.42,0.117,0.163,5.298,4.562,72,10.74,48.79
149.48,0.263,0.166,5.298,4.562,72,10.74,48.79
149.55,0.20423002421307507,0.306,5.295,4.559,72,10.74,48.77
149.61,0.099,0.376,5.294,4.559,72,10.74,48.75
149.68,-0.005,0.274,5.293,4.558,57,10.74,48.74
149.74,0.001,0.311,5.29,4.557,57,10.74,48.69
149.81,-0.009,0.194,5.289,4.554,57,10.74,48.59
149.87,-0.028,0.339,5.286,4.554,57,10.74,48.58
149.94,-0.038,0.057,5.285,4.552,57,10.74,48.59
150.0,-0.042,0.249,5.283,4.552,57,10.73,48.59
150.06,-0.022,0.308,5.281,4.549,57,10.74,48.6
150.13,0.002,0.29,5.28,4.549,57,10.74,48.61
150.19,-0.064,0.249,5.279,4.547,57,10.74,48.63
150.26,0.24,0.311,5.278,4.547,57,10.76,48.64
150.32,0.012,0.388,5.275,4.545,57,10.76,48.68
150.39,0.013,0.251,5.274,4.544,57,10.76,48.72
150.45,0.099,0.114,5.273,4.543,57,10.76,48.84
150.52,0.156,0.368,5.27,4.542,57,10.76,49.02
150.58,0.097,0.368,5.269,4.542,60,10.76,49.16
150.65,-0.092,0.313,5.268,4.539,60,10.76,49.3
150.71,-0.107,0.355,5.265,4.539,60,10.76,49.44
150.77,-0.113,0.145,5.264,4.537,60,10.76,49.5
150.84,-0.139,0.311,5.26,4.535,60,10.74,49.74
150.9,-0.156,0.197,5.26,4.534,60,10.76,49.75
150.97,-0.165,0.114,5.258,4.534,60,10.74,49.9
151.03,-0.111,0.202,5.258,4.532,60,10.74,50.09
151.1,-0.182,0.197,5.256,4.532,60,10.74,50.24
151.16,-0.203,0.339,5.255,4.529,60,10.73,50.34
151.23,0.178,0.269,5.253,4.528,60,10.74,50.43
151.29,-0.126,0.199,5.251,4.527,60,10.73,50.56
151.35,-0.056,0.19744736842105265,5.25,4.527,60,10.74,50.71
151.42,0.09,0.197,5.248,4.524,64,10.74,50.87
151.48,-0.065,0.409,5.245,4.524,64,10.74,51.03
151.55,-0.158,0.407,5.245,4.524,64,10.74,51.16
151.61,-0.18,0.233,5.243,4.522,64,10.74,51.28
151.68,-0.174,0.19819053472649045,5.241,4.522,64,10.74,51.34
151.74,-0.184,0.186,5.24,4.519,64,10.74,51.38
151.81,-0.189,0.316,5.236,4.515,64,10.74,51.56
151.87,-0.15,0.249,5.236,4.517,64,10.74,51.57
151.94,-0.161,0.347,5.235,4.517,64,10.74,51.65
152.0,-0.209,0.272,5.233,4.515,64,10.74,51.73
152.06,0.239,0.293,5.231,4.514,64,10.74,51.7
152.13,-0.202,0.334,5.23,4.512,64,10.74,51.65
152.19,-0.076,0.218,5.228,4.512,64,10.74,51.64
152.26,0.041,0.161,5.228,4.509,69,10.74,51.65
152.32,0.221,0.251,5.225,4.509,69,10.76,51.68
152.39,0.012,0.339,5.224,4.507,69,10.76,51.68
152.45,-0.153,0.321,5.221,4.507,69,10.76,51.66
152.52,-0.141,0.256,5.22,4.505,69,10.76,51.6
152.58,-0.144,0.347,5.219,4.505,69,10.76,51.46
152.65,-0.148,0.308,5.218,4.503,69,10.76,51.31
152.71,-0.147,0.254,5.215,4.502,69,10.76,51.22
152.77,-0.078,0.199,5.213,4.502,69,10.76,51.15
152.84,-0.134,0.344,5.212,4.5,69,10.76,51.11
152.9,-0.154,0.29,5.211,4.5,69,10.76,51.02
152.97,0.265,0.277,5.209,4.497,69,10.76,50.86
153.03,-0.061,0.329,5.208,4.497,69,10.76,50.71
153.1,0.017,0.37,5.206,4.496,69,10.76,50.58
153.16,0.165,0.116,5.204,4.495,67,10.76,50.44
153.23,0.314,0.29,5.203,4.493,67,10.76,50.29
153.29,0.012,0.355,5.201,4.492,67,10.76,50.14
153.35,-0.083,0.388,5.199,4.491,67,10.76,50.0
153.42,-0.066,0.344,5.198,4.49,67,10.74,49.83
153.48,-0.075,0.347,5.196,4.488,67,10.74,49.6
153.55,-0.086,0.274,5.194,4.487,67,10.74,49.44
153.61,-0.088,0.251,5.192,4.487,67,10.76,49.33
153.68,-0.086,0.378,5.191,4.486,67,10.76,49.23
153.74,-0.08,0.116,5.188,4.485,67,10.74,49.17
153.81,-0.021,0.218,5.187,4.483,67,10.74,49.09
153.87,-0.076,0.326,5.186,4.482,67,10.74,48.99
153.94,-0.091,0.355,5.183,4.481,67,10.74,48.91
154.0,0.292,0.298,5.182,4.48,67,10.74,48.86
154.06,0.002,0.332,5.181,4.478,67,10.76,48.81
154.13,0.068,0.334,5.179,4.477,67,10.76,48.78
154.19,0.22,0.30700000000000005,5.178,4.477,67,10.76,48.75
154.26,0.353,0.28,5.176,4.476,67,10.76,48.73
154.32,0.04,0.36,5.174,4.475,67,10.73,48.7
154.39,-0.045,0.225,5.173,4.472,58,10.73,48.71
154.45,-0.032,0.311,5.171,4.472,58,10.73,48.66
154.52,-0.043,0.386,5.171,4.47,58,10.73,48.56
154.58,-0.055,0.199,5.168,4.47,58,10.73,48.54
154.65,-0.061,0.293,5.167,4.468,58,10.73,48.55
154.71,-0.06,0.23,5.166,4.467,58,10.73,48.55
154.77,-0.058,0.274,5.163,4.465,58,10.72,48.58
154.84,-0.019,0.277,5.162,4.465,58,10.73,48.58
154.9,-0.038,0.329,5.161,4.462,58,10.73,48.59
154.97,-0.08,0.269,5.159,4.462,58,10.71,48.6
155.03,0.331,0.262,5.158,4.462,58,10.72,48.66
155.1,-0.077,0.311,5.156,4.46,58,10.71,48.73
155.16,0.122,0.163,5.154,4.46,58,10.72,48.85
155.23,0.183,0.163,5.153,4.457,58,10.71,49.01
155.29,0.32,0.199,5.151,4.457,58,10.72,49.19
155.35,0.103,0.352,5.149,4.455,58,10.72,49.34
155.42,-0.093,0.37,5.148,4.455,57,10.72,49.51
155.48,-0.088,0.332,5.144,4.452,57,10.72,49.74
155.55,-0.096,0.116,5.144,4.452,57,10.72,49.76
155.61,-0.111,0.116,5.143,4.451,57,10.72,49.88
155.68,-0.116,0.116,5.143,4.45,57,10.72,50.04
155.74,-0.116,0.116,5.141,4.448,57,10.72,50.2
155.81,-0.108,0.293,5.139,4.447,57,10.73,50.41
155.87,-0.058,0.269,5.138,4.447,57,10.72,50.55
155.94,-0.123,0.342,5.137,4.446,57,10.73,50.62
156.0,-0.09,0.228,5.134,4.442,57,10.73,50.87
156.06,0.222,0.308,5.133,4.442,57,10.73,50.89
156.13,0.016,0.313,5.131,4.442,57,10.73,51.04
156.19,0.055,0.313,5.129,4.44,57,10.73,51.18
156.26,0.188,0.3235,5.128,4.44,57,10.73,51.32
156.32,0.242,0.334,5.127,4.438,57,10.73,51.46
156.39,-0.073,0.269,5.125,4.437,57,10.73,51.56
156.45,-0.113,0.249,5.122,4.436,59,10.72,51.68
156.52,-0.112,0.293,5.121,4.436,59,10.73,51.68
156.58,-0.125,0.347,5.121,4.435,59,10.74,51.69
156.65,-0.134,0.363,5.12,4.433,59,10.74,51.74
156.71,-0.084,0.163,5.119,4.432,59,10.76,51.77
156.77,-0.076,0.161,5.116,4.43,59,10.76,51.84
156.84,-0.136,0.36,5.115,4.43,59,10.74,51.89
156.9,-0.159,0.342,5.114,4.427,59,10.74,51.84
156.97,0.258,0.254,5.111,4.426,59,10.72,51.8
157.03,-0.067,0.334,5.109,4.422,59,10.73,51.83
157.1,0.002,0.326,5.109,4.423,59,10.73,51.84
157.16,0.148,0.116,5.106,4.423,59,10.73,51.88
157.23,0.266,0.308,5.106,4.422,59,10.73,51.92
157.29,-0.052,0.368,5.104,4.421,59,10.73,51.91
157.35,-0.127,0.36,5.102,4.42,65,10.73,51.91
157.42,-0.124,0.267,5.101,4.42,65,10.73,51.86
157.48,-0.136,0.194,5.099,4.418,65,10.74,51.76
157.55,-0.145,0.344,5.097,4.418,65,10.76,51.69
157.61,-0.143,0.197,5.096,4.415,65,10.74,51.64
157.68,-0.084,0.277,5.094,4.415,65,10.73,51.63
157.74,-0.158,0.373,5.092,4.413,65,10.72,51.6
157.81,-0.155,0.306,5.091,4.413,65,10.72,51.49
157.87,0.229,0.321,5.089,4.411,65,10.71,51.34
157.94,-0.079,0.311,5.089,4.41,65,10.7,51.24
158.0,-0.003,0.163,5.086,4.41,65,10.7,51.19
158.06,0.164,0.254,5.085,4.408,67,10.7,51.14
158.13,0.24,0.282,5.084,4.406,67,10.68,51.07
158.19,-0.087,0.368,5.082,4.405,67,10.71,50.98
158.26,-0.133,0.308,5.081,4.405,67,10.7,50.87
158.32,-0.12,0.163,5.079,4.404,67,10.71,50.69
158.39,-0.129,0.274,5.077,4.403,67,10.71,50.5
158.45,-0.138,0.223,5.076,4.401,67,10.71,50.35
158.52,-0.14,0.194,5.074,4.4,67,10.71,50.22
158.58,-0.138,0.339,5.074,4.398,67,10.71,50.14
158.65,-0.109,0.342,5.071,4.398,67,10.72,50.1
158.71,-0.086,0.329,5.07,4.396,67,10.72,49.98
158.77,-0.146,0.272,5.067,4.395,67,10.72,49.88
158.84,0.262,0.277,5.066,4.395,67,10.72,49.8
158.9,-0.11,0.332,5.065,4.394,67,10.72,49.71
158.97,-0.033,0.388,5.064,4.393,67,10.72,49.62
159.03,0.067,0.391,5.061,4.391,67,10.72,49.54
159.1,0.256,0.285,5.061,4.39,67,10.72,49.47
159.16,0.132,0.386,5.059,4.39,67,10.72,49.42
159.23,-0.124,0.166,5.057,4.388,59,10.73,49.36
159.29,-0.124,0.249,5.056,4.386,59,10.73,49.27
159.35,-0.124,0.29,5.055,4.385,59,10.72,49.09
159.42,-0.138,0.225,5.054,4.385,59,10.73,48.95
159.48,-0.145,0.347,5.052,4.384,59,10.73,48.89
159.55,-0.147,0.365,5.05,4.383,59,10.73,48.83
159.61,-0.142,0.386,5.049,4.38,59,10.73,48.8
159.68,-0.104,0.42,5.046,4.38,59,10.72,48.77
159.74,-0.108,0.347,5.045,4.379,59,10.73,48.75
159.81,-0.151,0.205,5.044,4.378,59,10.72,48.73
159.87,0.278,0.249,5.042,4.378,59,10.72,48.72
