Time,ECG,EMG,foot GSR,hand GSR,HR,marker,RESP
0.0,0.071,0.207,2.471,2.628,78,9.65,45.4
0.06,0.045,0.228,2.471,2.628,78,9.63,45.14
0.13,0.057,0.186,2.471,2.628,78,9.63,44.86
0.19,0.067,0.207,2.471,2.628,78,9.63,44.53
0.26,0.084,0.207,2.471,2.628,78,9.63,44.26
0.32,0.151,0.249,2.471,2.628,78,9.63,44.06
0.39,0.074,0.207,2.471,2.628,78,9.63,43.93
0.45,0.132,0.29,2.471,2.628,78,9.65,43.8
0.52,0.362,0.58,2.471,2.628,78,9.63,43.62
0.58,0.162,0.207,2.471,2.628,78,9.63,43.47
0.65,0.245,0.207,2.471,2.628,78,9.63,43.35
0.71,0.29659482758620687,0.228,2.471,2.628,78,9.63,43.25
0.77,0.321,0.207,2.471,2.628,78,9.65,43.15
0.84,0.071,0.249,2.471,2.628,78,9.63,43.04
0.9,0.063,0.228,2.471,2.628,78,9.63,42.99
0.97,0.051,0.207,2.47,2.628,78,9.63,42.92
1.03,0.036,0.186,2.471,2.628,78,9.65,42.84
1.1,0.029,0.207,2.47,2.628,78,9.65,42.8
1.16,0.059,0.186,2.469,2.628,78,9.63,42.8
1.23,0.102,0.373,2.469,2.628,78,9.63,42.86
1.29,0.315,0.622,2.469,2.628,78,9.63,43.0
1.35,0.113,0.539,2.469,2.628,78,9.63,43.23
1.42,-0.004,0.186,2.469,2.628,78,9.65,43.53
1.48,0.067,0.186,2.469,2.628,78,9.63,43.85
1.55,0.232,0.228,2.469,2.626,78,9.65,44.44
1.61,0.072,0.186,2.469,2.626,78,9.65,44.48
1.68,-0.154,0.145,2.469,2.625,78,9.65,44.71
1.74,-0.162,0.207,2.469,2.626,78,9.65,44.94
1.81,-0.156,0.186,2.469,2.625,78,9.65,45.06
1.87,-0.137,0.207,2.469,2.626,78,9.65,45.24
1.94,-0.105,0.166,2.469,2.625,78,9.65,45.46
2.0,-0.182,0.186,2.467,2.626,78,9.65,45.7
2.06,0.135,0.394,2.466,2.625,78,9.65,45.94
2.13,-0.114,0.394,2.466,2.625,78,9.65,46.12
2.19,-0.06,0.186,2.466,2.625,78,9.65,46.23
2.26,0.041,0.186,2.466,2.625,78,9.63,46.31
2.32,0.21,0.207,2.466,2.625,78,9.63,46.37
2.39,0.002,0.186,2.466,2.625,78,9.63,46.37
2.45,-0.123,0.207,2.466,2.625,78,9.63,46.25
2.52,-0.096,0.207,2.466,2.625,78,9.63,46.05
2.58,-0.073,0.186,2.466,2.625,78,9.63,45.76
2.65,-0.033,0.186,2.466,2.625,78,9.63,45.52
2.71,0.029,0.186,2.466,2.625,78,9.63,45.31
2.77,-0.039,0.207,2.466,2.625,78,9.63,45.09
2.84,0.272,0.435,2.466,2.625,78,9.63,44.92
2.9,0.034,0.456,2.464,2.625,78,9.63,44.71
2.97,0.088,0.186,2.464,2.625,78,9.63,44.5
3.03,0.19,0.207,2.464,2.625,78,9.63,44.31
3.1,0.36,0.186,2.464,2.625,78,9.63,44.15
3.16,0.142,0.186,2.464,2.625,78,9.63,44.02
3.23,-0.007,0.186,2.464,2.625,77,9.63,43.89
3.29,0.0,0.207,2.464,2.625,77,9.63,43.74
3.35,-0.001,0.207,2.464,2.625,77,9.63,43.46
3.42,0.017,0.186,2.464,2.624,77,9.63,43.25
3.48,0.07,0.166,2.464,2.625,77,9.63,43.16
3.55,-0.011,0.207,2.464,2.624,77,9.63,43.11
3.61,0.222,0.456,2.464,2.625,77,9.63,43.08
3.68,0.097,0.497,2.464,2.625,77,9.63,43.03
3.74,0.089,0.186,2.464,2.625,77,9.63,43.0
3.81,0.18,0.186,2.462,2.625,77,9.63,42.98
3.87,0.345,0.207,2.462,2.625,77,9.63,42.96
3.94,0.152,0.207,2.461,2.624,77,9.63,42.95
4.0,-0.026,0.228,2.461,2.623,76,9.63,42.93
4.06,-0.038,0.186,2.461,2.623,76,9.63,42.94
4.13,-0.055,0.207,2.461,2.623,76,9.63,42.92
4.19,-0.056,0.207,2.461,2.623,76,9.65,42.89
4.26,-0.016,0.249,2.461,2.623,76,9.65,42.91
4.32,-0.113,0.186,2.461,2.623,76,9.63,42.98
4.39,0.031,0.394,2.461,2.623,76,9.63,43.18
4.45,0.029,0.477,2.461,2.623,76,9.63,43.39
4.52,-0.066,0.186,2.461,2.623,76,9.63,43.64
4.58,0.006,0.207,2.46,2.623,77,9.63,43.89
4.65,0.163,0.207,2.459,2.623,77,9.65,44.18
4.71,-0.003,0.207,2.459,2.623,77,9.63,44.45
4.77,-0.206,0.186,2.459,2.623,77,9.63,44.68
4.84,-0.207,0.207,2.459,2.623,77,9.65,44.91
4.9,-0.202,0.186,2.459,2.623,77,9.65,45.02
4.97,-0.148,0.207,2.459,2.623,77,9.65,45.18
5.03,-0.176,0.186,2.459,2.623,77,9.65,45.38
5.1,-0.219,0.228,2.459,2.623,77,9.63,45.63
5.16,0.149,0.518,2.459,2.623,77,9.65,45.89
5.23,-0.181,0.269,2.456,2.623,77,9.65,46.08
5.29,-0.088,0.228,2.457,2.623,77,9.63,46.24
5.35,0.044,0.207,2.456,2.623,80,9.63,46.44
5.42,0.118,0.166,2.456,2.623,80,9.63,46.68
5.48,-0.185,0.207,2.456,2.623,80,9.63,46.92
5.55,-0.237,0.166,2.456,2.623,80,9.63,47.12
5.61,-0.234,0.186,2.456,2.623,80,9.63,47.23
5.68,-0.207,0.228,2.456,2.623,80,9.63,47.3
5.74,-0.191,0.186,2.456,2.623,80,9.63,47.39
5.81,-0.254,0.166,2.456,2.623,80,9.63,47.54
5.87,0.163,0.373,2.456,2.623,80,9.63,47.7
5.94,-0.247,0.352,2.456,2.623,80,9.65,47.82
6.0,-0.132,0.166,2.455,2.62,80,9.63,47.84
6.06,-0.015,0.186,2.454,2.623,83,9.63,47.86
6.13,0.115,0.186,2.454,2.623,83,9.62,47.93
6.19,-0.158,0.207,2.454,2.623,83,9.61,48.01
6.26,-0.249,0.186,2.454,2.621,83,9.61,48.07
6.32,-0.242,0.207,2.454,2.623,83,9.61,48.12
6.39,-0.214,0.207,2.454,2.623,83,9.61,48.08
6.45,-0.177,0.207,2.454,2.621,83,9.61,48.07
6.52,-0.245,0.207,2.454,2.623,83,9.65,48.08
6.58,0.119,0.414,2.454,2.62,83,9.68,48.12
6.65,-0.172,0.331,2.452,2.62,83,9.57,48.16
6.71,-0.115,0.166,2.452,2.62,83,9.58,48.12
6.77,-0.004,0.186,2.452,2.62,83,9.71,48.09
6.84,0.157,0.186,2.451,2.62,83,9.74,48.12
6.9,-0.087,0.207,2.451,2.62,83,9.94,48.18
6.97,-0.207,0.166,2.451,2.621,83,10.23,48.16
7.03,-0.188,0.186,2.451,2.62,83,9.85,48.13
7.1,-0.161,0.186,2.451,2.62,83,9.88,48.0
7.16,-0.098,0.186,2.451,2.62,83,10.32,47.89
7.23,-0.164,0.166,2.451,2.62,83,10.49,47.8
7.29,-0.018,0.331,2.451,2.62,83,10.13,47.75
7.35,0.138,0.456,2.451,2.62,83,9.99,47.72
7.42,-0.014,0.166,2.451,2.62,83,9.94,47.62
7.48,0.091,0.166,2.449,2.62,83,9.9,47.47
7.55,0.282,0.186,2.449,2.62,83,10.05,47.33
7.61,0.136,0.166,2.449,2.62,83,9.91,47.22
7.68,-0.047,0.166,2.449,2.62,82,9.74,47.04
7.74,-0.026,0.207,2.449,2.62,82,9.47,46.85
7.81,-0.008,0.228,2.449,2.62,82,9.55,46.54
7.87,0.017,0.228,2.449,2.62,82,9.47,46.23
7.94,0.1,0.207,2.449,2.62,82,9.88,45.93
8.0,0.041,0.207,2.449,2.62,82,9.65,45.71
8.06,0.055,0.29,2.449,2.62,82,9.46,45.54
8.13,0.09123413653207818,0.58,2.446,2.62,82,9.68,45.37
8.19,0.149,0.228,2.446,2.62,82,9.95,45.18
8.26,0.237,0.228,2.446,2.62,82,9.94,44.99
8.32,0.31638356164383563,0.249,2.446,2.62,82,9.95,44.81
8.39,0.359,0.269,2.446,2.62,82,9.97,44.66
8.45,0.096,0.249,2.446,2.62,82,9.88,44.46
8.52,0.088,0.249,2.446,2.62,82,9.86,44.26
8.58,0.092,0.228,2.446,2.62,82,9.94,43.98
8.65,0.106,0.207,2.446,2.62,82,9.6,43.7
8.71,0.116,0.207,2.446,2.619,82,9.89,43.52
8.77,0.171,0.228,2.446,2.62,82,10.05,43.38
8.84,0.129,0.228,2.446,2.618,82,10.07,43.28
8.9,0.094,0.228,2.446,2.62,82,9.77,43.17
8.97,0.11838914027149322,0.622,2.446,2.62,82,9.58,43.05
9.03,0.171,0.29,2.446,2.62,76,9.79,42.98
9.1,0.261,0.228,2.446,2.618,76,9.69,42.94
9.16,0.24129723331853825,0.249,2.446,2.618,76,9.72,42.92
9.23,0.19292779997040982,0.249,2.446,2.618,76,9.73,42.87
9.29,0.132,0.249,2.446,2.618,76,9.67,42.78
9.35,0.042,0.269,2.446,2.618,76,9.72,42.56
9.42,0.016,0.249,2.446,2.618,76,9.68,42.43
9.48,-0.006,0.29,2.446,2.618,54,9.6,42.44
9.55,-0.015,0.249,2.444,2.618,54,9.55,42.62
9.61,0.019,0.249,2.444,2.618,54,9.57,43.06
9.68,-0.076,0.249,2.444,2.618,54,9.65,43.61
9.74,0.007,0.331,2.444,2.618,54,9.76,44.08
9.81,0.142,0.829,2.444,2.618,54,9.8,44.48
9.87,-0.03,0.311,2.445,2.618,54,9.72,44.87
9.94,0.043,0.311,2.446,2.618,54,9.73,45.23
10.0,0.205,0.249,2.446,2.618,54,9.69,45.59
10.06,0.067,0.249,2.446,2.618,54,9.68,45.86
10.13,-0.159,0.249,2.446,2.618,54,9.68,46.08
10.19,-0.164,0.29,2.446,2.618,54,9.68,46.06
10.26,-0.155,0.249,2.446,2.618,54,9.69,45.73
10.32,-0.086,0.269,2.446,2.618,54,9.73,45.7
10.39,-0.146,0.269,2.446,2.618,54,9.74,45.91
10.45,-0.169,0.269,2.446,2.615,54,9.73,46.13
10.52,0.192,0.539,2.446,2.618,54,9.74,46.28
10.58,-0.06,0.269,2.446,2.618,54,9.79,46.4
10.65,0.02,0.249,2.446,2.618,54,9.84,46.45
10.71,0.193,0.249,2.446,2.618,54,9.88,46.44
10.77,0.187,0.249,2.446,2.618,54,9.86,46.44
10.84,-0.055,0.249,2.446,2.618,54,9.74,46.41
10.9,-0.049,0.249,2.446,2.618,54,9.57,46.26
10.97,-0.024,0.228,2.446,2.618,54,9.41,45.96
11.03,0.019,0.228,2.446,2.618,54,9.39,45.62
11.1,0.059,0.249,2.445,2.619,54,9.47,45.32
11.16,0.008,0.228,2.445,2.618,54,9.9,45.06
11.23,0.007222154963680388,0.539,2.444,2.618,54,9.89,44.86
11.29,0.007,0.435,2.444,2.618,54,9.65,44.63
11.35,0.151,0.186,2.444,2.618,54,9.63,44.35
11.42,0.271,0.207,2.444,2.618,54,9.5,44.08
11.48,0.21478706624605678,0.186,2.444,2.618,54,9.6,43.88
11.55,0.114,0.207,2.444,2.618,54,9.99,43.7
11.61,0.014,0.186,2.444,2.618,54,9.94,43.54
11.68,0.007,0.186,2.445,2.618,54,9.82,43.4
11.74,0.005,0.186,2.444,2.618,54,9.77,43.22
11.81,0.057,0.186,2.444,2.619,54,9.83,43.18
11.87,0.023,0.186,2.444,2.618,54,9.83,43.2
11.94,-0.032,0.186,2.445,2.619,54,9.82,43.27
12.0,0.311,0.663,2.446,2.62,54,9.82,43.41
12.06,-0.012,0.269,2.445,2.62,54,9.82,43.42
12.13,0.059,0.186,2.446,2.619,54,9.82,43.51
12.19,0.167,0.207,2.446,2.62,54,9.82,43.61
12.26,0.235,0.186,2.446,2.62,54,9.82,43.74
12.32,-0.088,0.207,2.444,2.62,54,9.83,43.91
12.39,-0.166,0.207,2.446,2.62,78,9.82,44.14
12.45,-0.169,0.207,2.445,2.62,78,9.82,44.35
12.52,-0.177,0.186,2.446,2.62,78,9.84,44.57
12.58,-0.17,0.186,2.446,2.62,78,9.86,44.86
12.65,-0.153,0.207,2.444,2.62,78,9.86,45.23
12.71,-0.238,0.186,2.446,2.62,78,9.86,45.65
12.77,0.09,0.373,2.446,2.62,78,9.85,46.0
12.84,-0.215,0.414,2.446,2.62,78,9.86,46.27
12.9,-0.163,0.166,2.444,2.62,78,9.88,46.5
12.97,-0.071,0.186,2.444,2.62,75,9.88,46.78
13.03,0.075,0.186,2.446,2.62,75,9.88,47.11
13.1,-0.161,0.186,2.446,2.62,75,9.88,47.38
13.16,-0.3,0.186,2.446,2.62,75,9.88,47.58
13.23,-0.282,0.186,2.445,2.62,75,9.88,47.74
13.29,-0.254,0.186,2.445,2.62,75,9.88,47.83
13.35,-0.197,0.186,2.444,2.62,75,9.88,47.9
13.42,-0.161,0.207,2.445,2.62,75,9.85,47.95
13.48,-0.213,0.186,2.444,2.62,75,9.86,47.93
13.55,0.216,0.414,2.444,2.62,75,9.85,47.81
13.61,-0.183,0.435,2.444,2.62,75,9.85,47.68
13.68,-0.048,0.207,2.446,2.62,75,9.84,47.58
13.74,0.077,0.186,2.446,2.62,78,9.85,47.57
13.81,0.228,0.166,2.445,2.62,78,9.85,47.6
13.87,-0.036,0.186,2.446,2.62,78,9.85,47.61
13.94,-0.141,0.166,2.446,2.62,78,9.85,47.54
14.0,-0.125,0.166,2.446,2.62,78,9.86,47.45
14.06,-0.122,0.186,2.446,2.62,78,9.88,47.31
14.13,-0.121,0.186,2.446,2.619,78,9.86,47.22
14.19,-0.069,0.207,2.444,2.62,78,9.86,47.22
14.26,-0.083,0.186,2.444,2.62,78,9.86,47.29
14.32,-0.127,0.186,2.444,2.62,78,9.88,47.35
14.39,0.285,0.518,2.444,2.62,78,9.88,47.35
14.45,-0.073,0.249,2.444,2.619,78,9.88,47.35
14.52,0.027,0.186,2.444,2.619,78,9.88,47.36
14.58,0.167,0.166,2.444,2.618,78,9.88,47.38
14.65,0.276,0.186,2.444,2.618,78,9.88,47.41
14.71,-0.037,0.166,2.444,2.618,78,9.88,47.38
14.77,-0.101,0.166,2.444,2.618,72,9.88,47.37
14.84,-0.09,0.166,2.444,2.618,72,9.88,47.32
14.9,-0.089,0.186,2.444,2.618,72,9.88,47.19
14.97,-0.085,0.166,2.444,2.618,72,9.88,47.14
15.03,-0.062,0.207,2.444,2.618,72,9.86,47.16
15.1,-0.035,0.186,2.444,2.618,72,9.86,47.23
15.16,-0.104,0.186,2.444,2.618,72,9.86,47.3
15.23,0.319,0.456,2.444,2.618,72,9.86,47.31
15.29,-0.096,0.435,2.444,2.618,72,9.88,47.3
15.35,0.019,0.186,2.444,2.618,72,9.89,47.32
15.42,0.132,0.228,2.444,2.618,72,9.9,47.35
15.48,0.293,0.477,2.444,2.618,72,9.9,47.4
15.55,0.028,1.637,2.444,2.618,72,9.9,47.38
15.61,-0.092,0.249,2.444,2.618,70,9.9,47.36
15.68,-0.084,0.352,2.442,2.618,70,9.9,47.33
15.74,-0.076,0.435,2.444,2.618,70,9.9,47.26
15.81,-0.065,0.414,2.444,2.618,70,9.9,47.24
15.87,-0.052,0.394,2.441,2.618,70,9.9,47.27
15.94,0.009,0.373,2.442,2.618,70,9.9,47.26
16.0,-0.036,0.414,2.441,2.616,70,9.9,47.14
16.06,-0.073,0.331,2.441,2.618,70,9.9,46.9
16.13,0.3,0.622,2.441,2.616,70,9.9,46.59
16.19,0.023,0.269,2.441,2.618,70,9.9,46.27
16.26,0.09,0.228,2.441,2.618,70,9.9,46.24
16.32,0.232,0.394,2.441,2.615,70,9.9,46.27
16.39,0.248,0.249,2.441,2.615,70,9.9,46.22
16.45,-0.035,0.228,2.441,2.616,70,9.9,46.06
16.52,-0.062,0.228,2.441,2.616,68,9.9,45.84
16.58,-0.06,0.311,2.441,2.615,68,9.9,45.76
16.65,-0.072,0.207,2.441,2.615,68,9.9,45.67
16.71,-0.07,0.249,2.44,2.615,68,9.9,45.63
16.77,-0.022,0.249,2.439,2.615,68,9.9,45.6
16.84,-0.016,0.186,2.439,2.615,68,9.9,45.59
16.9,-0.064,0.269,2.439,2.615,68,9.91,45.55
16.97,0.318,0.725,2.439,2.615,68,9.91,45.54
17.03,-0.025,0.394,2.439,2.615,68,9.91,45.45
17.1,0.082,0.249,2.439,2.615,68,9.91,45.41
17.16,0.219,0.207,2.439,2.615,68,9.91,45.35
17.23,0.349,0.331,2.439,2.615,68,9.91,45.32
17.29,0.078,0.29,2.439,2.615,68,9.91,45.25
17.35,0.014,0.228,2.439,2.615,68,9.91,45.12
17.42,0.018,0.228,2.439,2.615,70,9.91,44.9
17.48,0.011,0.311,2.437,2.615,70,9.91,44.54
17.55,0.029,0.207,2.436,2.614,70,9.91,44.29
17.61,0.064,0.228,2.436,2.614,70,9.91,44.19
17.68,-0.013,0.352,2.436,2.615,70,9.91,44.11
17.74,0.355,0.456,2.436,2.613,70,9.91,44.04
17.81,-0.032,0.477,2.436,2.614,70,9.93,43.98
17.87,0.075,0.228,2.436,2.613,70,9.93,43.94
17.94,0.146,0.311,2.436,2.613,70,9.93,43.91
18.0,0.265,0.29,2.436,2.613,70,9.93,43.92
18.06,-0.012,0.29,2.436,2.613,70,9.93,43.97
18.13,-0.155,0.249,2.436,2.613,76,9.93,44.13
18.19,-0.165,0.269,2.436,2.613,76,9.93,44.5
18.26,-0.176,0.29,2.436,2.613,76,9.93,44.77
18.32,-0.123,0.269,2.434,2.613,76,9.93,45.1
18.39,-0.191,0.311,2.435,2.613,76,9.93,45.47
18.45,-0.228,0.477,2.434,2.613,76,9.93,45.87
18.52,0.115,0.559,2.434,2.613,76,9.93,46.25
18.58,-0.158,0.228,2.434,2.613,76,9.93,46.54
18.65,-0.1,0.269,2.434,2.613,76,9.91,46.81
18.71,0.044,1.119,2.434,2.613,80,9.93,47.06
18.77,0.038,1.554,2.434,2.613,80,9.93,47.36
18.84,-0.215,2.01,2.434,2.613,80,9.93,47.64
18.9,-0.226,1.657,2.434,2.613,80,9.93,47.85
18.97,-0.205,1.16,2.434,2.613,80,9.93,47.89
19.03,-0.125,2.01,2.434,2.613,80,9.93,47.82
19.1,-0.105,2.61,2.434,2.611,80,9.94,47.7
19.16,-0.127,1.802,2.434,2.611,80,9.91,47.57
19.23,0.292,2.051,2.431,2.61,80,9.94,47.41
19.29,-0.054,0.932,2.431,2.61,80,9.84,47.03
19.35,0.058,1.72,2.431,2.611,80,9.74,46.69
19.42,0.207,1.554,2.431,2.61,80,9.82,46.48
19.48,0.301,2.61,2.431,2.61,80,9.82,46.38
19.55,0.04,2.61,2.431,2.61,80,9.82,46.2
19.61,0.006,1.761,2.431,2.61,82,9.82,45.99
19.68,0.009,1.74,2.431,2.61,82,9.82,45.7
19.74,0.02,2.569,2.431,2.61,82,9.82,45.35
19.81,0.064,2.7957119285201855,2.431,2.61,82,9.8,45.12
19.87,0.003,2.935355964260093,2.431,2.611,82,9.8,44.94
19.94,0.278,2.983,2.431,2.61,82,9.8,44.76
20.0,0.039,2.652,2.431,2.61,82,9.8,44.76
20.06,0.037,2.766,2.43,2.61,82,9.79,44.73
20.13,0.051,2.88,2.43,2.61,82,9.79,44.72
20.19,0.102,2.072,2.43,2.61,82,9.8,44.75
20.26,-0.227,2.088074074074074,2.429,2.61,82,9.8,44.76
20.32,-0.26918699229781323,2.1179259259259258,2.429,2.61,82,9.8,44.59
20.39,-0.3020919110712259,2.134,2.429,2.61,82,9.8,44.37
20.45,-0.32673231626102994,1.657,2.429,2.61,82,9.79,44.19
20.52,-0.34412576780801735,1.616,2.429,2.61,82,9.79,44.19
20.58,-0.3552898256529801,1.885,2.429,2.609,82,9.78,44.3
20.65,-0.36124204973671037,1.326,2.429,2.609,82,9.78,44.39
20.71,-0.363,1.264,2.429,2.608,82,9.78,44.54
20.77,-0.3292962962962963,0.725,2.429,2.608,82,9.78,44.77
20.84,-0.2667037037037037,0.642,2.429,2.608,82,9.78,44.79
20.9,-0.233,1.285,2.429,2.61,82,9.78,44.91
20.97,-0.354,1.14,2.429,2.608,82,9.79,44.91
21.03,-0.35897244488977953,1.057,2.429,2.608,82,9.79,44.91
21.1,-0.36203106212424846,0.477,2.429,2.61,82,9.79,44.93
21.16,-0.3635741482965932,0.601,2.429,2.608,82,9.79,44.8
21.23,-0.364,0.539,2.429,2.608,82,9.79,44.77
21.29,-0.3424727866473149,0.331,2.429,2.608,82,9.79,44.77
21.35,-0.285,0.311,2.429,2.608,82,9.79,44.73
21.42,-0.076,0.559,2.429,2.608,82,9.79,44.76
21.48,-0.243,0.269,2.429,2.608,82,9.8,44.8
21.55,-0.129,0.352,2.429,2.608,82,9.8,44.81
21.61,0.068,0.269,2.429,2.608,84,9.82,44.82
21.68,-0.044,0.269,2.429,2.608,84,9.82,44.86
21.74,-0.224,0.249,2.429,2.608,84,9.82,44.89
21.81,-0.182,0.373,2.429,2.608,84,9.82,44.89
21.87,-0.128,0.456,2.429,2.608,84,9.82,44.68
21.94,-0.046,1.243,2.429,2.608,84,9.8,44.51
22.0,-0.09,0.249,2.429,2.608,84,9.8,44.73
22.06,0.285,1.844,2.429,2.606,84,9.8,45.06
22.13,0.044,2.622285685099428,2.429,2.606,84,9.8,45.18
22.19,0.078,2.963,2.429,2.608,84,9.8,45.11
22.26,0.228,1.098,2.429,2.606,84,9.8,45.2
22.32,0.374,0.518,2.429,2.608,84,9.8,45.49
22.39,0.091,0.767,2.427,2.606,84,9.8,45.47
22.45,-0.026,0.497,2.429,2.605,84,9.8,45.79
22.52,0.084,0.518,2.429,2.606,84,9.8,45.97
22.58,0.118,0.746,2.429,2.605,84,9.8,45.02
22.65,0.129,0.29,2.429,2.608,84,9.79,43.74
22.71,0.037,0.373,2.427,2.605,84,9.79,43.51
22.77,0.0308659793814433,0.601,2.426,2.605,84,9.8,44.7
22.84,0.029,0.394,2.426,2.605,84,9.8,46.5
22.9,0.156,0.228,2.426,2.605,86,9.8,46.52
22.97,0.26,0.29,2.426,2.605,86,9.8,45.85
23.03,0.21926510067114097,0.249,2.426,2.605,86,9.8,45.15
23.1,0.138,0.228,2.426,2.605,86,9.8,44.61
23.16,0.028,0.207,2.426,2.605,86,9.8,44.34
23.23,0.032,0.186,2.425,2.605,86,9.8,44.45
23.29,0.038,0.207,2.425,2.605,86,9.8,44.64
23.35,0.1,0.186,2.426,2.605,86,9.8,44.95
23.42,0.082,0.207,2.426,2.605,86,9.8,44.98
23.48,0.052,0.186,2.426,2.605,86,9.8,44.92
23.55,0.06303658536585366,0.518,2.426,2.605,86,9.8,45.0
23.61,0.092,0.29,2.429,2.605,86,9.8,44.96
23.68,0.19,0.207,2.429,2.605,86,9.8,44.77
23.74,0.304,0.207,2.429,2.605,86,9.8,44.58
23.81,0.23141772151898735,0.186,2.429,2.605,86,9.8,44.47
23.87,0.116,0.166,2.431,2.605,86,9.8,44.27
23.94,0.036,0.186,2.431,2.605,86,9.8,44.01
24.0,0.006,0.166,2.431,2.605,86,9.8,43.81
24.06,-0.018,0.207,2.431,2.605,86,9.8,43.63
24.13,0.008,0.186,2.431,2.605,86,9.8,43.72
24.19,-0.083,0.166,2.431,2.605,86,9.8,43.97
24.26,0.005,0.331,2.431,2.605,86,9.8,44.39
24.32,0.087,0.435,2.431,2.603,86,9.8,44.82
24.39,-0.036,0.166,2.431,2.603,86,9.8,45.18
24.45,0.029,0.145,2.431,2.605,86,9.8,45.54
24.52,0.156,0.124,2.431,2.603,86,9.8,45.96
24.58,0.023,0.145,2.434,2.604,86,9.8,46.43
24.65,-0.149,0.145,2.434,2.604,86,9.8,46.83
24.71,-0.15,0.145,2.434,2.603,86,9.8,47.21
24.77,-0.136,0.166,2.434,2.603,86,9.8,47.43
24.84,-0.082,0.207,2.434,2.603,86,9.8,47.69
24.9,-0.16,0.186,2.434,2.603,85,9.8,47.96
24.97,0.006,0.331,2.432,2.603,85,9.8,48.28
25.03,0.024,0.352,2.434,2.603,85,9.8,48.56
25.1,-0.068,0.166,2.432,2.603,85,9.8,48.74
25.16,0.016,0.166,2.431,2.603,85,9.8,48.83
25.23,0.15,0.186,2.431,2.603,85,9.8,48.93
25.29,-0.009,0.186,2.431,2.603,85,9.8,49.01
25.35,-0.144,0.207,2.431,2.603,85,9.8,49.03
25.42,-0.137,0.166,2.431,2.603,85,9.8,49.03
25.48,-0.117,0.207,2.431,2.603,85,9.8,48.92
25.55,-0.059,0.207,2.431,2.603,85,9.8,48.87
25.61,-0.131,0.186,2.431,2.603,85,9.8,48.82
25.68,0.088,0.394,2.431,2.603,85,9.8,48.82
25.74,0.05,0.331,2.431,2.603,85,9.8,48.81
25.81,0.067,0.186,2.431,2.603,85,9.8,48.74
25.87,0.231,0.207,2.431,2.603,85,9.8,48.69
25.94,0.05,0.186,2.431,2.603,85,9.8,48.67
26.0,-0.085,0.207,2.431,2.603,84,9.8,48.65
26.06,-0.076,0.207,2.431,2.6,84,9.8,48.61
26.13,-0.066,0.186,2.431,2.6,84,9.8,48.41
26.19,-0.001,0.186,2.431,2.601,84,9.8,48.24
26.26,-0.066,0.186,2.431,2.6,84,9.8,48.1
26.32,-0.082,0.249,2.429,2.6,84,9.8,48.05
26.39,0.281,0.559,2.429,2.6,84,9.8,48.04
26.45,0.01,0.186,2.429,2.6,84,9.8,48.0
26.52,0.083,0.166,2.429,2.6,84,9.8,47.89
26.58,0.237,0.186,2.429,2.6,84,9.8,47.8
26.65,0.2,0.186,2.429,2.6,84,9.8,47.74
26.71,-0.037,0.186,2.429,2.6,84,9.8,47.64
26.77,-0.037,0.166,2.429,2.6,89,9.8,47.5
26.84,-0.024,0.166,2.429,2.6,89,9.82,47.22
26.9,-0.007,0.186,2.429,2.6,89,9.82,46.86
26.97,0.058,0.249,2.426,2.6,89,9.82,46.53
27.03,0.034,0.186,2.426,2.6,89,9.82,46.27
27.1,0.0,0.207,2.426,2.6,89,9.82,46.05
27.16,0.372,0.58,2.426,2.6,89,9.82,45.85
27.23,0.064,0.249,2.426,2.6,89,9.8,45.61
27.29,0.167,0.186,2.426,2.6,89,9.8,45.38
27.35,0.305,0.186,2.426,2.6,89,9.82,45.17
27.42,0.22459576757532282,0.166,2.426,2.6,89,9.8,44.99
27.48,0.111,0.166,2.426,2.6,89,9.8,44.82
27.55,0.058,0.186,2.426,2.6,89,9.8,44.64
27.61,0.063,0.186,2.426,2.6,89,9.8,44.44
27.68,0.064,0.166,2.424,2.6,89,9.8,44.14
27.74,0.066,0.186,2.424,2.6,89,9.8,43.95
27.81,0.113,0.186,2.424,2.6,89,9.8,43.86
27.87,0.093,0.186,2.424,2.599,89,9.82,43.82
27.94,0.048,0.166,2.424,2.599,89,9.82,43.74
28.0,0.054343283582089556,0.559,2.424,2.6,89,9.82,43.73
28.06,0.073,0.331,2.424,2.599,75,9.8,43.73
28.13,0.183,0.186,2.424,2.599,75,9.82,43.73
28.19,0.304,0.186,2.424,2.599,75,9.82,43.73
28.26,0.23909038199181445,0.145,2.424,2.6,75,9.82,43.74
28.32,0.134,0.186,2.424,2.599,75,9.82,43.73
28.39,0.057,0.186,2.424,2.598,75,9.82,43.73
28.45,0.057,0.166,2.424,2.598,75,9.82,43.7
28.52,0.057,0.186,2.424,2.598,75,9.82,43.61
28.58,0.05,0.186,2.422,2.598,75,9.82,43.56
28.65,0.05,0.145,2.421,2.598,75,9.82,43.56
28.71,0.071,0.166,2.421,2.598,75,9.82,43.57
28.77,-0.022,0.166,2.421,2.598,55,9.82,43.59
28.84,0.165,0.414,2.421,2.598,55,9.82,43.61
28.9,0.059,0.477,2.421,2.598,55,9.82,43.78
28.97,0.013,0.186,2.421,2.598,55,9.82,44.05
29.03,0.081,0.186,2.421,2.598,55,9.82,44.35
29.1,0.219,0.186,2.421,2.598,55,9.82,44.68
29.16,0.033,0.207,2.421,2.598,55,9.82,44.96
29.23,-0.154,0.166,2.42,2.598,55,9.82,45.2
29.29,-0.158,0.166,2.421,2.598,55,9.82,45.43
29.35,-0.156,0.166,2.421,2.598,55,9.82,45.56
29.42,-0.155,0.186,2.421,2.598,55,9.83,45.76
29.48,-0.096,0.186,2.42,2.598,55,9.82,46.01
29.55,-0.164,0.166,2.419,2.596,55,9.82,46.29
29.61,-0.193,0.228,2.419,2.598,55,9.82,46.58
29.68,0.152,0.497,2.419,2.598,55,9.83,46.79
29.74,-0.105,0.207,2.419,2.598,55,9.82,46.96
29.81,-0.044,0.166,2.419,2.596,55,9.82,47.15
29.87,0.098,0.166,2.419,2.595,75,9.83,47.4
29.94,0.085,0.186,2.419,2.598,75,9.83,47.66
30.0,-0.173,0.186,2.419,2.595,75,9.83,47.85
30.06,-0.191,0.186,2.419,2.595,75,9.83,47.98
30.13,-0.18,0.166,2.419,2.595,75,9.83,47.99
30.19,-0.171,0.207,2.419,2.595,75,9.83,47.99
30.26,-0.106,0.207,2.419,2.595,75,9.83,48.01
30.32,-0.171,0.207,2.419,2.595,75,9.83,48.1
30.39,-0.19,0.207,2.419,2.595,75,9.83,48.18
30.45,0.185,0.477,2.419,2.595,75,9.83,48.22
30.52,-0.089,0.228,2.419,2.595,75,9.83,48.18
30.58,-0.015,0.186,2.416,2.595,75,9.83,48.1
30.65,0.134,0.166,2.416,2.595,77,9.83,48.05
30.71,0.129,0.186,2.416,2.595,77,9.83,48.01
30.77,-0.114,0.186,2.416,2.595,77,9.83,47.9
30.84,-0.116,0.166,2.416,2.595,77,9.83,47.75
30.9,-0.089,0.186,2.416,2.595,77,9.83,47.5
30.97,-0.065,0.166,2.416,2.595,77,9.83,47.18
31.03,-0.032,0.186,2.416,2.595,77,9.82,46.85
31.1,0.04,0.166,2.416,2.595,77,9.83,46.58
31.16,-0.024,0.186,2.416,2.595,77,9.83,46.34
31.23,0.126,0.352,2.416,2.595,77,9.83,46.08
31.29,0.216,0.58,2.416,2.595,77,9.83,45.8
31.35,0.104,0.166,2.416,2.595,77,9.83,45.54
31.42,0.201,0.186,2.416,2.595,77,9.83,45.32
31.48,0.375,0.166,2.416,2.595,77,9.83,45.13
31.55,0.237,0.186,2.416,2.595,77,9.83,44.94
31.61,0.04,0.166,2.414,2.594,77,9.83,44.74
31.68,0.038,0.166,2.414,2.594,72,9.83,44.58
31.74,0.034,0.186,2.415,2.595,72,9.83,44.32
31.81,0.043,0.186,2.415,2.593,72,9.83,44.08
31.87,0.058,0.166,2.414,2.595,72,9.83,43.96
31.94,0.107,0.166,2.414,2.593,72,9.83,43.89
32.0,0.028,0.228,2.414,2.593,72,9.83,43.88
32.06,0.211,0.394,2.414,2.593,72,9.83,43.84
32.13,0.187,0.58,2.414,2.593,72,9.83,43.8
32.19,0.122,0.186,2.414,2.593,72,9.83,43.79
32.26,0.205,0.207,2.414,2.593,72,9.83,43.79
32.32,0.365,0.166,2.414,2.593,72,9.83,43.79
32.39,0.2,0.186,2.414,2.593,72,9.83,43.78
32.45,0.007,0.186,2.414,2.593,72,9.83,43.75
32.52,-0.001,0.186,2.414,2.593,72,9.83,43.74
32.58,-0.007,0.186,2.414,2.593,72,9.83,43.64
32.65,-0.003,0.166,2.412,2.593,72,9.83,43.59
32.71,-0.002,0.166,2.411,2.593,72,9.83,43.58
32.77,0.051,0.207,2.411,2.593,72,9.83,43.58
32.84,-0.004,0.166,2.411,2.593,72,9.83,43.6
32.9,-0.035,0.207,2.411,2.593,72,9.83,43.6
32.97,0.286,0.58,2.411,2.593,72,9.83,43.6
33.03,0.036,0.228,2.411,2.593,72,9.83,43.6
33.1,0.078,0.186,2.411,2.593,72,9.83,43.61
33.16,0.2,0.207,2.411,2.593,72,9.83,43.65
33.23,0.211,0.207,2.411,2.591,72,9.83,43.66
33.29,-0.1,0.186,2.411,2.593,69,9.83,43.74
33.35,-0.162,0.186,2.411,2.593,69,9.83,43.95
33.42,-0.168,0.166,2.411,2.593,69,9.83,44.16
33.48,-0.175,0.186,2.411,2.593,69,9.83,44.34
33.55,-0.18,0.186,2.411,2.593,69,9.83,44.63
33.61,-0.129,0.207,2.41,2.59,69,9.83,44.95
33.68,-0.205,0.166,2.411,2.591,69,9.83,45.28
33.74,-0.223,0.269,2.41,2.59,69,9.83,45.58
33.81,0.082,0.539,2.411,2.59,69,9.83,45.82
33.87,-0.159,0.186,2.41,2.59,69,9.83,46.06
33.94,-0.096,0.186,2.411,2.59,69,9.83,46.31
34.0,0.049,0.186,2.409,2.59,72,9.83,46.61
34.06,0.013,0.207,2.41,2.59,72,9.83,46.87
34.13,-0.242,0.186,2.411,2.59,72,9.83,47.08
34.19,-0.255,0.166,2.411,2.59,72,9.83,47.24
34.26,-0.236,0.186,2.411,2.59,72,9.83,47.27
34.32,-0.219,0.186,2.41,2.59,72,9.83,47.23
34.39,-0.144,0.186,2.41,2.59,72,9.83,47.18
34.45,-0.185,0.186,2.409,2.59,72,9.83,47.13
34.52,-0.204,0.228,2.409,2.59,72,9.83,47.09
34.58,0.163,0.518,2.409,2.59,72,9.83,47.02
34.65,-0.094,0.228,2.409,2.59,72,9.83,46.87
34.71,-0.013,0.186,2.409,2.59,72,9.83,46.72
34.77,0.135,0.186,2.409,2.59,76,9.83,46.6
34.84,0.156,0.186,2.409,2.59,76,9.83,46.51
34.9,-0.111,0.186,2.409,2.59,76,9.83,46.34
34.97,-0.133,0.166,2.409,2.59,76,9.83,46.15
35.03,-0.116,0.186,2.409,2.59,76,9.83,45.9
35.1,-0.106,0.186,2.407,2.59,76,9.83,45.65
35.16,-0.095,0.186,2.406,2.59,76,9.83,45.46
35.23,-0.027,0.207,2.406,2.59,76,9.83,45.34
35.29,-0.082,0.186,2.406,2.59,76,9.83,45.23
35.35,-0.102,0.228,2.406,2.59,76,9.83,45.14
35.42,0.237,0.601,2.406,2.59,76,9.84,45.02
35.48,-0.015,0.269,2.406,2.59,76,9.83,44.9
35.55,0.053,0.166,2.406,2.588,76,9.83,44.8
35.61,0.206,0.186,2.406,2.588,76,9.83,44.73
35.68,0.217,0.166,2.406,2.589,76,9.84,44.66
35.74,-0.057,0.166,2.406,2.588,76,9.84,44.57
35.81,-0.085,0.166,2.406,2.589,71,9.83,44.47
35.87,-0.074,0.145,2.406,2.589,71,9.84,44.32
35.94,-0.064,0.166,2.406,2.589,71,9.84,44.11
36.0,-0.051,0.166,2.404,2.588,71,9.84,44.0
36.06,0.012,0.166,2.404,2.588,71,9.84,43.94
36.13,-0.052,0.186,2.404,2.588,71,9.84,43.9
36.19,-0.075,0.207,2.404,2.588,71,9.84,43.88
36.26,0.24,0.601,2.404,2.588,71,9.84,43.83
36.32,-0.007,0.186,2.404,2.588,71,9.84,43.81
36.39,0.044,0.186,2.404,2.588,71,9.84,43.84
36.45,0.182,0.186,2.404,2.588,71,9.84,43.91
36.52,0.162,0.166,2.404,2.588,71,9.84,44.04
36.58,-0.136,0.166,2.404,2.588,71,9.84,44.14
36.65,-0.183,0.207,2.404,2.588,71,9.84,44.27
36.71,-0.187,0.166,2.404,2.588,71,9.84,44.37
36.77,-0.191,0.166,2.404,2.588,71,9.84,44.49
36.84,-0.178,0.145,2.404,2.588,71,9.84,44.72
36.9,-0.139,0.186,2.401,2.588,71,9.84,45.0
36.97,-0.22,0.166,2.401,2.588,71,9.84,45.3
37.03,-0.011,0.373,2.401,2.588,71,9.84,45.55
37.1,-0.095,0.414,2.401,2.588,71,9.84,45.76
37.16,-0.139,0.186,2.401,2.588,71,9.84,45.95
37.23,-0.051,0.186,2.401,2.588,73,9.84,46.17
37.29,0.108,0.186,2.401,2.588,73,9.84,46.44
37.35,-0.068,0.186,2.401,2.588,73,9.84,46.67
37.42,-0.239,0.186,2.401,2.588,73,9.84,46.83
37.48,-0.231,0.166,2.401,2.588,73,9.85,46.96
37.55,-0.215,0.186,2.401,2.588,73,9.84,46.94
37.61,-0.198,0.166,2.401,2.588,73,9.84,46.89
37.68,-0.12,0.186,2.401,2.586,73,9.85,46.84
37.74,-0.182,0.186,2.401,2.588,73,9.84,46.81
37.81,-0.183,0.228,2.399,2.588,73,9.84,46.79
37.87,0.157,0.539,2.401,2.586,73,9.85,46.72
37.94,-0.077,0.207,2.399,2.588,73,9.84,46.59
38.0,0.001,0.166,2.399,2.588,73,9.85,46.49
38.06,0.163,0.166,2.399,2.585,75,9.85,46.44
38.13,0.135,0.166,2.399,2.586,75,9.85,46.4
38.19,-0.117,0.186,2.399,2.585,75,9.85,46.31
38.26,-0.13,0.186,2.399,2.588,75,9.85,46.18
38.32,-0.112,0.166,2.399,2.586,75,9.85,45.97
38.39,-0.103,0.207,2.399,2.586,75,9.85,45.73
38.45,-0.083,0.186,2.399,2.585,75,9.85,45.56
38.52,-0.019,0.186,2.399,2.585,75,9.85,45.43
38.58,-0.092,0.186,2.399,2.588,75,9.85,45.32
38.65,0.032,0.311,2.399,2.585,75,9.85,45.23
38.71,0.133,0.539,2.399,2.585,75,9.85,45.1
38.77,0.006,0.186,2.397,2.585,75,9.85,44.98
38.84,0.097,0.166,2.396,2.585,75,9.85,44.9
38.9,0.268,0.186,2.396,2.585,75,9.85,44.83
38.97,0.135,0.166,2.396,2.585,75,9.85,44.75
39.03,-0.069,0.166,2.396,2.585,72,9.85,44.67
39.1,-0.069,0.166,2.396,2.585,72,9.85,44.57
39.16,-0.056,0.186,2.396,2.585,72,9.85,44.36
39.23,-0.041,0.186,2.396,2.585,72,9.85,44.16
39.29,-0.025,0.186,2.396,2.585,72,9.85,44.06
39.35,0.042,0.207,2.396,2.585,72,9.85,43.99
39.42,-0.025,0.186,2.396,2.585,72,9.85,43.95
39.48,0.013,0.269,2.396,2.585,72,9.85,43.92
39.55,0.269,0.601,2.396,2.585,72,9.85,43.86
39.61,0.07,0.186,2.396,2.585,72,9.85,43.83
39.68,0.148,0.186,2.396,2.585,72,9.85,43.82
39.74,0.316,0.186,2.396,2.585,72,9.85,43.83
39.81,0.244,0.186,2.395,2.585,72,9.85,43.81
39.87,-0.004,0.186,2.394,2.585,72,9.85,43.78
39.94,-0.019,0.186,2.394,2.585,70,9.85,43.77
40.0,-0.015,0.166,2.394,2.585,70,9.85,43.68
40.06,-0.013,0.186,2.394,2.585,70,9.85,43.6
40.13,-0.01,0.166,2.394,2.585,70,9.85,43.58
40.19,0.025,0.207,2.394,2.585,70,9.85,43.58
40.26,0.018,0.207,2.394,2.585,70,9.85,43.59
40.32,-0.035,0.166,2.394,2.585,70,9.85,43.61
40.39,0.34,0.539,2.394,2.585,70,9.85,43.61
40.45,-0.039,0.373,2.394,2.585,70,9.85,43.6
40.52,0.076,0.166,2.394,2.585,70,9.85,43.62
40.58,0.172,0.186,2.394,2.585,70,9.85,43.65
40.65,0.297,0.186,2.394,2.585,70,9.85,43.66
40.71,0.007,0.207,2.394,2.585,70,9.85,43.65
40.77,-0.114,0.166,2.394,2.585,68,9.85,43.73
40.84,-0.117,0.207,2.391,2.584,68,9.85,43.94
40.9,-0.122,0.186,2.392,2.584,68,9.85,44.08
40.97,-0.126,0.166,2.391,2.584,68,9.85,44.27
41.03,-0.123,0.186,2.391,2.585,68,9.85,44.5
41.1,-0.074,0.186,2.391,2.585,68,9.85,44.75
41.16,-0.15,0.207,2.391,2.584,68,9.85,45.02
41.23,-0.123,0.29,2.391,2.583,68,9.85,45.21
41.29,0.118,0.539,2.391,2.583,68,9.85,45.39
41.35,-0.09,0.186,2.391,2.583,68,9.85,45.61
41.42,-0.02,0.166,2.391,2.583,68,9.85,45.85
41.48,0.138,0.207,2.391,2.583,68,9.85,46.1
41.55,0.067,0.186,2.391,2.583,68,9.85,46.31
41.61,-0.184,0.186,2.391,2.583,68,9.85,46.48
41.68,-0.194,0.166,2.391,2.583,68,9.85,46.68
41.74,-0.183,0.166,2.391,2.583,68,9.85,46.8
41.81,-0.176,0.186,2.391,2.583,68,9.85,46.91
41.87,-0.118,0.166,2.391,2.583,68,9.85,47.04
41.94,-0.143,0.166,2.391,2.583,68,9.85,47.17
42.0,-0.175,0.166,2.39,2.583,68,9.85,47.29
42.06,0.202,0.497,2.39,2.583,68,9.85,47.27
42.13,-0.129,0.228,2.389,2.583,68,9.85,47.17
42.19,-0.021,0.166,2.389,2.583,68,9.85,47.06
42.26,0.11,0.166,2.389,2.583,68,9.85,46.98
42.32,0.208,0.166,2.389,2.583,68,9.85,46.91
42.39,-0.067,0.186,2.389,2.583,68,9.85,46.79
42.45,-0.117,0.186,2.389,2.583,75,9.85,46.61
42.52,-0.097,0.166,2.389,2.583,75,9.85,46.38
42.58,-0.082,0.186,2.389,2.583,75,9.85,46.1
42.65,-0.073,0.186,2.389,2.583,75,9.85,45.83
42.71,-0.04,0.228,2.389,2.583,75,9.85,45.61
42.77,-0.01,0.186,2.389,2.583,75,9.85,45.45
42.84,-0.077,0.186,2.387,2.583,75,9.85,45.32
42.9,0.308,0.435,2.387,2.583,75,9.85,45.17
42.97,-0.082,0.477,2.387,2.583,75,9.86,45.02
43.03,0.039,0.186,2.387,2.583,75,9.86,44.91
43.1,0.15,0.166,2.387,2.583,75,9.86,44.87
43.16,0.31,0.186,2.387,2.583,75,9.86,44.84
43.23,0.061,0.186,2.387,2.583,75,9.86,44.79
43.29,-0.073,0.166,2.387,2.583,70,9.86,44.7
43.35,-0.064,0.166,2.387,2.583,70,9.85,44.61
43.42,-0.056,0.207,2.387,2.583,70,9.86,44.39
43.48,-0.048,0.166,2.387,2.583,70,9.86,44.24
43.55,-0.029,0.186,2.387,2.583,70,9.86,44.14
43.61,0.024,0.186,2.387,2.583,70,9.86,44.05
43.68,-0.051,0.207,2.387,2.583,70,9.86,44.0
43.74,0.082,0.311,2.387,2.583,70,9.86,43.93
43.81,0.138,0.539,2.387,2.583,70,9.86,43.88
43.87,0.018,0.186,2.387,2.583,70,9.86,43.84
43.94,0.09,0.186,2.387,2.583,70,9.86,43.86
44.0,0.25,0.186,2.385,2.583,70,9.86,43.93
44.06,0.101,0.186,2.384,2.581,70,9.86,44.03
44.13,-0.134,0.145,2.384,2.581,70,9.86,44.17
44.19,-0.151,0.186,2.384,2.581,70,9.86,44.38
44.26,-0.15,0.186,2.384,2.581,70,9.86,44.5
44.32,-0.153,0.145,2.384,2.583,70,9.86,44.65
44.39,-0.128,0.166,2.384,2.581,70,9.86,44.91
44.45,-0.103,0.166,2.384,2.581,70,9.86,45.19
44.52,-0.178,0.186,2.384,2.58,70,9.86,45.5
44.58,0.171,0.414,2.384,2.581,70,9.86,45.74
44.65,-0.165,0.394,2.384,2.581,70,9.86,45.93
44.71,-0.072,0.186,2.384,2.58,70,9.86,46.1
44.77,0.03,0.186,2.384,2.58,72,9.86,46.32
44.84,0.193,0.186,2.384,2.581,72,9.86,46.54
44.9,-0.031,0.166,2.384,2.58,72,9.88,46.69
44.97,-0.165,0.166,2.384,2.58,72,9.86,46.77
45.03,-0.146,0.186,2.383,2.58,72,9.86,46.77
45.1,-0.123,0.166,2.384,2.58,72,9.86,46.62
45.16,-0.102,0.166,2.383,2.58,72,9.85,46.45
45.23,-0.022,0.166,2.382,2.58,72,9.85,46.3
45.29,-0.073,0.166,2.382,2.58,72,9.85,46.18
45.35,-0.091,0.207,2.382,2.58,72,9.86,46.07
45.42,0.259,0.601,2.382,2.58,72,9.85,45.88
45.48,0.009,0.186,2.382,2.58,72,9.86,45.66
45.55,0.083,0.186,2.382,2.58,72,9.86,45.46
45.61,0.238,0.166,2.382,2.58,72,9.86,45.33
45.68,0.259,0.166,2.382,2.58,72,9.85,45.21
45.74,-0.028,0.186,2.382,2.58,72,9.85,45.05
45.81,-0.056,0.186,2.382,2.58,74,9.85,44.9
45.87,-0.044,0.166,2.382,2.58,74,9.85,44.69
45.94,-0.037,0.186,2.382,2.58,74,9.85,44.43
46.0,-0.026,0.186,2.382,2.58,74,9.85,44.25
46.06,0.042,0.166,2.382,2.58,74,9.85,44.14
46.13,-0.019,0.207,2.382,2.58,74,9.85,44.08
46.19,-0.044,0.249,2.379,2.58,74,9.85,44.06
46.26,0.284,0.622,2.38,2.58,74,9.85,44.0
46.32,0.042,0.228,2.379,2.58,74,9.85,43.95
46.39,0.107,0.166,2.379,2.58,74,9.85,43.92
46.45,0.261,0.186,2.379,2.58,74,9.85,43.9
46.52,0.276,0.207,2.379,2.58,74,9.85,43.9
46.58,-0.017,0.166,2.379,2.58,74,9.86,43.88
46.65,-0.052,0.166,2.379,2.58,71,9.86,43.88
46.71,-0.045,0.166,2.379,2.58,71,9.85,43.8
46.77,-0.037,0.186,2.379,2.58,71,9.85,43.69
46.84,-0.04,0.207,2.379,2.58,71,9.85,43.65
46.9,0.002,0.228,2.379,2.58,71,9.86,43.65
46.97,-0.053,0.166,2.379,2.58,71,9.86,43.65
47.03,-0.108,0.186,2.379,2.58,71,9.86,43.67
47.1,0.213,0.58,2.379,2.58,71,9.86,43.7
47.16,-0.087,0.249,2.378,2.58,71,9.86,43.88
47.23,-0.02,0.186,2.378,2.58,71,9.86,44.14
47.29,0.096,0.186,2.377,2.58,70,9.86,44.45
47.35,0.167,0.166,2.377,2.58,70,9.86,44.77
47.42,-0.145,0.166,2.377,2.58,70,9.86,45.05
47.48,-0.212,0.166,2.377,2.58,70,9.86,45.31
47.55,-0.205,0.166,2.377,2.58,70,9.86,45.51
47.61,-0.203,0.166,2.377,2.578,70,9.86,45.65
47.68,-0.166,0.186,2.377,2.58,70,9.88,45.87
47.74,-0.164,0.166,2.377,2.578,70,9.88,46.12
47.81,-0.223,0.166,2.377,2.579,70,9.88,46.39
47.87,0.165,0.477,2.377,2.579,70,9.89,46.65
47.94,-0.222,0.352,2.377,2.58,70,9.89,46.8
48.0,-0.096,0.166,2.377,2.58,70,9.88,46.94
48.06,0.014,0.186,2.377,2.58,75,9.88,47.07
48.13,0.155,0.207,2.377,2.58,75,9.88,47.17
48.19,-0.102,0.186,2.377,2.58,75,9.88,47.18
48.26,-0.194,0.166,2.377,2.579,75,9.88,47.11
48.32,-0.177,0.166,2.377,2.579,75,9.88,46.99
48.39,-0.158,0.166,2.377,2.58,75,9.88,46.78
48.45,-0.135,0.166,2.377,2.58,75,9.88,46.59
48.52,-0.049,0.166,2.377,2.578,75,9.88,46.44
48.58,-0.109,0.166,2.377,2.578,75,9.88,46.32
48.65,-0.092,0.249,2.375,2.579,75,9.88,46.22
48.71,0.23,0.58,2.375,2.579,75,9.88,46.05
48.77,0.005,0.166,2.377,2.58,75,9.86,45.84
48.84,0.085,0.186,2.374,2.58,75,9.88,45.66
48.9,0.255,0.166,2.374,2.579,75,9.88,45.52
48.97,0.216,0.186,2.374,2.58,75,9.88,45.37
49.03,-0.039,0.186,2.374,2.58,75,9.88,45.2
49.1,-0.05,0.166,2.374,2.579,74,9.88,45.03
49.16,-0.038,0.186,2.374,2.578,74,9.88,44.81
49.23,-0.029,0.186,2.374,2.58,74,9.88,44.55
49.29,-0.017,0.186,2.374,2.578,74,9.88,44.38
49.35,0.05,0.186,2.374,2.579,74,9.88,44.28
49.42,-0.007,0.166,2.374,2.578,74,9.88,44.21
49.48,-0.029,0.186,2.374,2.578,74,9.88,44.16
49.55,0.305,0.642,2.374,2.578,74,9.88,44.1
49.61,0.065,0.207,2.374,2.578,74,9.88,44.05
49.68,0.136,0.166,2.374,2.578,74,9.88,44.02
49.74,0.294,0.166,2.374,2.578,74,9.88,44.01
49.81,0.328,0.186,2.372,2.578,74,9.88,44.0
49.87,0.038,0.166,2.372,2.578,74,9.88,43.95
49.94,0.001,0.186,2.373,2.578,74,9.88,43.88
50.0,0.01,0.186,2.372,2.578,70,9.79,43.78
50.06,0.016,0.166,2.372,2.578,70,9.82,43.66
50.13,0.024,0.186,2.372,2.578,70,9.96,43.61
50.19,0.074,0.186,2.372,2.578,70,9.89,43.61
50.26,0.044,0.166,2.372,2.578,70,9.73,43.61
50.32,-0.015,0.186,2.372,2.578,70,9.83,43.62
50.39,0.323,0.58,2.372,2.578,70,9.71,43.62
50.45,-0.028,0.29,2.372,2.578,70,9.68,43.61
50.52,0.054,0.186,2.372,2.578,70,10.19,43.68
50.58,0.164,0.166,2.372,2.578,70,10.43,43.94
50.65,0.269,0.207,2.372,2.578,70,10.45,44.24
50.71,-0.043,0.186,2.372,2.578,70,10.28,44.52
50.77,-0.144,0.166,2.37,2.578,70,10.34,44.83
50.84,-0.145,0.186,2.372,2.578,70,10.49,45.07
50.9,-0.151,0.186,2.372,2.578,70,10.73,45.22
50.97,-0.149,0.166,2.372,2.578,70,10.71,45.46
51.03,-0.107,0.186,2.372,2.578,70,10.62,45.75
51.1,-0.198,0.186,2.372,2.578,70,10.6,46.03
51.16,-0.106,0.29,2.37,2.578,70,10.66,46.33
51.23,0.024,0.435,2.37,2.578,70,10.71,46.52
51.29,-0.134,0.166,2.369,2.578,70,10.78,46.69
51.35,-0.055,0.166,2.369,2.578,70,10.73,46.86
51.42,0.109,0.186,2.37,2.578,74,10.65,47.08
51.48,-0.006,0.186,2.369,2.578,74,10.61,47.26
51.55,-0.218,0.186,2.369,2.578,74,10.73,47.34
51.61,-0.215,0.186,2.369,2.578,74,10.9,47.34
51.68,-0.19,0.186,2.369,2.578,74,10.84,47.18
51.74,-0.171,0.166,2.369,2.578,74,10.67,46.99
51.81,-0.09,0.166,2.369,2.578,74,10.51,46.85
51.87,-0.119,0.166,2.369,2.578,74,10.38,46.74
51.94,-0.141,0.207,2.369,2.578,74,10.37,46.63
52.0,0.226,0.539,2.369,2.578,74,10.37,46.44
52.06,-0.052,0.249,2.369,2.578,74,10.3,46.2
52.13,0.032,0.166,2.369,2.578,74,10.34,45.95
52.19,0.179,0.186,2.369,2.578,74,10.51,45.74
52.26,0.251,0.166,2.369,2.578,74,10.6,45.57
52.32,-0.045,0.186,2.369,2.578,74,10.63,45.38
52.39,-0.098,0.207,2.369,2.578,75,10.7,45.21
52.45,-0.092,0.166,2.369,2.578,75,10.66,45.03
52.52,-0.091,0.166,2.368,2.578,75,10.74,44.78
52.58,-0.079,0.186,2.368,2.578,75,10.51,44.61
52.65,-0.016,0.186,2.367,2.578,75,10.43,44.5
52.71,-0.09,0.186,2.367,2.578,75,10.66,44.42
52.77,-0.043,0.269,2.367,2.578,75,10.72,44.36
52.84,0.2,0.622,2.367,2.578,75,10.46,44.29
52.9,0.005,0.207,2.367,2.578,75,10.17,44.22
52.97,0.086,0.207,2.367,2.578,75,10.13,44.17
53.03,0.261,0.207,2.367,2.578,75,10.12,44.12
53.1,0.197,0.207,2.367,2.578,75,10.11,44.08
53.16,-0.053,0.186,2.367,2.578,72,10.06,44.02
53.23,-0.066,0.207,2.367,2.578,72,10.0,43.95
53.29,-0.058,0.207,2.367,2.578,72,9.96,43.84
53.35,-0.052,0.186,2.367,2.578,72,9.96,43.69
53.42,-0.045,0.207,2.367,2.578,72,9.95,43.66
53.48,0.011,0.207,2.367,2.578,72,9.95,43.64
53.55,-0.073,0.186,2.367,2.575,72,9.96,43.65
53.61,-0.102,0.207,2.367,2.578,72,10.02,43.66
53.68,0.191,0.559,2.367,2.578,72,10.11,43.65
53.74,-0.065,0.207,2.364,2.578,72,10.1,43.68
53.81,-0.019,0.207,2.365,2.578,72,10.11,43.86
53.87,0.123,0.186,2.364,2.578,71,10.12,44.14
53.94,0.1,0.228,2.364,2.578,71,10.12,44.44
54.0,-0.198,0.186,2.364,2.578,71,10.13,44.73
54.06,-0.231,0.207,2.364,2.578,71,10.13,45.03
54.13,-0.222,0.186,2.364,2.578,71,10.13,45.23
54.19,-0.219,0.207,2.364,2.578,71,10.15,45.42
54.26,-0.176,0.207,2.364,2.578,71,10.21,45.66
54.32,-0.189,0.207,2.364,2.578,71,10.29,45.94
54.39,-0.242,0.207,2.364,2.578,71,10.3,46.24
54.45,0.136,0.456,2.364,2.578,71,10.35,46.48
54.52,-0.233,0.29,2.364,2.578,71,10.4,46.65
54.58,-0.118,0.207,2.364,2.578,71,10.41,46.83
54.65,0.004,0.186,2.364,2.578,75,10.41,47.05
54.71,0.128,0.186,2.364,2.578,75,10.44,47.3
54.77,-0.148,0.186,2.364,2.578,75,10.44,47.48
54.84,-0.218,0.207,2.364,2.578,75,10.48,47.55
54.9,-0.196,0.186,2.364,2.578,75,10.54,47.51
54.97,-0.179,0.186,2.364,2.578,75,10.62,47.34
55.03,-0.151,0.207,2.364,2.578,75,10.63,47.2
55.1,-0.078,0.228,2.364,2.578,75,10.71,47.06
55.16,-0.141,0.186,2.364,2.578,75,10.79,46.97
55.23,-0.027,0.311,2.362,2.578,75,10.94,46.89
55.29,0.14,0.559,2.362,2.578,75,11.05,46.72
55.35,-0.009,0.207,2.362,2.578,75,11.01,46.5
55.42,0.084,0.207,2.362,2.578,75,10.59,46.34
55.48,0.267,0.186,2.362,2.578,75,10.49,46.2
55.55,0.16,0.207,2.362,2.578,75,10.63,46.06
55.61,-0.056,0.186,2.362,2.578,75,10.52,45.88
55.68,-0.05,0.186,2.362,2.578,74,10.51,45.68
55.74,-0.034,0.186,2.362,2.578,74,10.65,45.41
55.81,-0.022,0.207,2.362,2.578,74,10.65,45.15
55.87,0.049,0.207,2.362,2.578,74,10.76,44.99
55.94,0.059,0.186,2.362,2.576,74,10.77,44.84
56.0,0.0,0.207,2.362,2.578,74,10.74,44.75
56.06,-0.017,0.269,2.362,2.578,74,10.76,44.66
56.13,0.329,0.642,2.36,2.578,74,10.87,44.57
56.19,0.082,0.249,2.362,2.576,74,10.91,44.45
56.26,0.158,0.207,2.362,2.578,74,10.91,44.44
56.32,0.318,0.207,2.362,2.576,74,10.83,44.4
56.39,0.351,0.228,2.36,2.578,74,10.79,44.33
56.45,0.055,0.207,2.362,2.578,74,10.71,44.24
56.52,0.018,0.186,2.36,2.578,74,10.7,44.14
56.58,0.018,0.207,2.362,2.578,74,10.67,44.0
56.65,0.008,0.207,2.362,2.578,74,10.77,43.82
56.71,-0.002,0.186,2.36,2.578,74,10.7,43.75
56.77,0.03,0.207,2.359,2.578,70,10.65,43.76
56.84,-0.026,0.207,2.359,2.575,70,10.71,43.84
56.9,-0.084,0.207,2.359,2.575,70,10.78,44.0
56.97,0.257,0.58,2.359,2.575,70,10.61,44.22
57.03,-0.067,0.311,2.359,2.578,70,10.33,44.51
57.1,0.009,0.456,2.359,2.576,70,10.34,44.84
57.16,0.134,1.761,2.359,2.576,70,10.38,45.18
57.23,0.226,1.7582059326171873,2.359,2.575,70,10.54,45.48
57.29,-0.113,1.7500615234374999,2.359,2.575,70,10.54142857142857,45.75
57.35,-0.153,1.7369234619140623,2.359,2.575,70,10.542857142857143,46.03
57.42,-0.137,1.7191484375,2.359,2.575,70,10.544285714285714,46.26
57.48,-0.117,1.6970931396484374,2.359,2.575,70,10.545714285714286,46.5
57.55,-0.046,1.6711142578124998,2.359,2.575,70,10.547142857142857,46.83
57.61,-0.107,1.6415684814453122,2.359,2.575,70,10.54857142857143,47.3
57.68,-0.257,1.6088124999999998,2.359,2.576,70,10.55,47.32
57.74,0.067,1.5732030029296873,2.359,2.575,70,10.01,47.43
57.81,-0.249,1.5350966796874999,2.359,2.575,70,9.93,47.39
57.87,-0.179,1.4948502197265625,2.359,2.575,70,9.82,47.2
57.94,-0.024,1.4528203124999999,2.358,2.575,77,9.86,46.69
58.0,-0.002,1.4093636474609375,2.359,2.575,77,9.93,46.85
58.06,-0.343,1.3648369140624999,2.359,2.575,77,9.82,47.49
58.13,-0.345,1.3195968017578124,2.359,2.575,77,9.82,48.07
58.19,-0.336,1.274,2.359,2.575,77,9.79,48.21
58.26,-0.298,1.2284031982421875,2.359,2.575,77,9.86,48.46
58.32,-0.251,1.1831630859375,2.359,2.575,77,9.76,49.33
58.39,-0.311,1.1386363525390624,2.359,2.575,77,9.68,50.1
58.45,0.166,1.0951796875,2.358,2.575,77,9.85,50.75
58.52,-0.295,1.0531497802734373,2.358,2.575,77,9.67,51.44
58.58,-0.127,1.0129033203125,2.357,2.575,77,9.77,52.36
58.65,-0.016,0.9747969970703124,2.357,2.575,82,9.71,52.72
58.71,0.148,0.9391874999999998,2.357,2.575,82,9.73,52.63
58.77,-0.167,0.9064315185546875,2.357,2.574,82,9.73,52.49
58.84,-0.241,0.8768857421875,2.357,2.575,82,9.74,52.69
58.9,-0.204,0.8509068603515624,2.357,2.575,82,9.74,52.89
58.97,-0.156,0.8288515624999997,2.357,2.573,82,9.74,52.9
59.03,-0.117,0.8110765380859375,2.357,2.575,82,9.73,52.9
59.1,-0.169,0.7979384765624999,2.357,2.573,82,9.76,52.98
59.16,0.334,0.7897940673828123,2.355,2.575,82,9.76,53.0
59.23,-0.152,0.787,2.354,2.575,82,9.76,52.84
59.29,0.012,1.823,2.354,2.575,82,9.76,52.39
59.35,0.201,2.4574011039913533,2.355,2.575,82,9.76,52.02
59.42,0.347,2.756,2.355,2.575,82,9.76,52.53
59.48,0.031,2.113,2.358,2.575,82,9.76,53.24
59.55,-0.042,1.015,2.359,2.575,84,9.76,54.1
59.61,-0.001,0.7824919454770756,2.359,2.575,84,9.74,55.19
59.68,0.048,0.6457459727385377,2.362,2.575,84,9.74,55.35
59.74,-0.012,0.601,2.362,2.575,84,9.72,55.36
59.81,-0.018,0.849,2.362,2.575,84,9.71,55.25
59.87,0.372,1.264,2.36,2.578,84,9.69,55.03
59.94,-0.069,2.03,2.359,2.578,84,9.68,55.29
60.0,0.033,1.305,2.359,2.578,84,9.69,55.86
60.06,0.255,0.912,2.36,2.578,84,9.69,56.7
60.13,0.22130190311418685,0.539,2.363,2.579,84,9.71,56.694545454545455
60.19,0.15,0.414,2.365,2.579,84,9.72,56.689090909090915
60.26,0.035,1.14,2.368,2.581,84,9.74,56.68363636363637
60.32,-0.014,2.445,2.374,2.58,84,9.74,56.67818181818182
60.39,0.033,2.901,2.38,2.583,86,9.74,56.67272727272727
60.45,-0.027,2.714,2.384,2.583,86,9.73,56.66727272727273
60.52,-0.01,2.424,2.385,2.583,86,9.73,56.661818181818184
60.58,0.0319970738116092,1.388,2.39,2.583,86,9.73,56.656363636363636
60.65,0.095,2.0615,2.395,2.583,86,9.73,56.65090909090909
60.71,0.179,2.735,2.397,2.585,86,9.73,56.64545454545455
60.77,0.15825925925925924,2.729948489778461,2.402,2.585,86,9.73,56.64
60.84,0.11974074074074074,2.7128680363832958,2.41,2.585,86,9.73,56.04
60.9,0.099,2.68086975571868,2.415,2.584,86,9.74,55.61
60.97,0.1,2.631064763688789,2.422,2.585,86,9.74,55.7
61.03,0.103,2.5605641761977997,2.428,2.586,86,9.74,55.75
61.1,0.169,2.466479109149888,2.437,2.588,86,9.74,55.6
61.16,0.071,2.3459206784492292,2.442,2.588,86,9.74,55.48
61.23,0.107,2.196,2.447,2.589,86,9.76,55.39
61.29,0.11454499494438826,1.036,2.452,2.59,86,9.76,55.47
61.35,0.123,0.622,2.457,2.59,85,9.74,55.68
61.42,0.199,0.9155408132154438,2.461,2.59,85,9.74,55.66
61.48,0.28730275229357805,1.409,2.465,2.59,85,9.74,55.45
61.55,0.339,1.9035200357651367,2.466,2.589,85,9.76,55.35
61.61,0.058,2.403037795660346,2.469,2.589,85,9.76,55.49
61.68,0.009,2.631,2.472,2.59,85,9.76,55.78
61.74,-0.011,2.2479999999999998,2.479,2.59,63,9.74,56.27
61.81,0.03,1.865,2.489,2.594,63,9.74,56.73
61.87,-0.025,2.2895,2.493,2.593,63,9.76,56.721999999999994
61.94,0.124,2.714,2.497,2.593,63,9.76,56.714
62.0,0.094,2.5403243243243243,2.502,2.593,63,9.76,56.705999999999996
62.06,0.004,2.238,2.506,2.593,63,9.76,56.698
62.13,0.106,1.8936756756756756,2.508,2.59,63,9.74,56.69
62.19,0.26,1.678,2.511,2.59,63,9.76,56.681999999999995
62.26,0.072,2.258,2.511,2.589,63,9.76,56.674
62.32,-0.105,1.554,2.512,2.588,63,9.76,56.666
62.39,-0.097,2.673,2.513,2.589,63,9.76,56.658
62.45,-0.083,2.113,2.513,2.586,63,9.76,56.65
62.52,-0.059,1.637,2.514,2.587,63,9.76,56.26
62.58,-0.121,1.927,2.516,2.594,63,9.76,55.83
62.65,0.219,2.155,2.516,2.598,63,9.76,55.31
62.71,-0.078,1.637,2.514,2.598,63,9.76,54.91
62.77,-0.073,1.657,2.513,2.598,63,9.76,54.49
62.84,0.009,1.927,2.513,2.599,85,9.76,54.07
62.9,0.143,2.314732773471145,2.513,2.6,85,9.76,53.75
62.97,-0.112,2.7283108311800173,2.513,2.6,85,9.76,53.41
63.03,-0.271,2.921,2.513,2.599,85,9.76,53.04
63.1,-0.282,0.953,2.512,2.598,85,9.76,52.67
63.16,-0.245,1.409,2.511,2.598,85,9.76,52.17
63.23,-0.254,2.093,2.511,2.598,85,9.76,51.45
63.29,-0.322,1.81128125,2.509,2.598,85,9.76,50.71
63.35,0.104,1.1915,2.508,2.598,85,9.76,49.91
63.42,-0.334,0.57171875,2.508,2.598,85,9.76,49.54
63.48,-0.187,0.29,2.506,2.598,85,9.76,49.07
63.55,-0.07,1.844,2.506,2.598,85,9.76,48.6
63.61,0.049,2.5407196299275947,2.506,2.598,85,9.76,48.24
63.68,-0.194,2.838,2.507,2.598,85,9.76,47.87
63.74,-0.255,1.512,2.508,2.598,85,9.76,47.56
63.81,-0.238,1.844,2.508,2.598,85,9.76,47.2
63.87,-0.193,2.756,2.506,2.6,85,9.76,46.72
63.94,-0.218,2.4874074074074075,2.506,2.6,85,9.76,46.33
64.0,-0.264,1.9885925925925925,2.504,2.6,85,9.76,46.09
64.06,0.128,1.72,2.503,2.6,85,9.76,45.92
64.13,-0.215,2.921,2.502,2.6,85,9.76,45.77
64.19,-0.093,2.155,2.501,2.6,85,9.76,45.56
64.26,0.032,2.0189691747759153,2.501,2.6,85,9.76,45.44
64.32,0.126,1.906,2.498,2.6,85,9.76,45.43
64.39,-0.133,1.595,2.498,2.6,85,9.76,45.42
64.45,-0.173,1.678,2.496,2.599,85,9.76,45.43
64.52,-0.165,0.932,2.496,2.6,85,9.76,45.33
64.58,-0.108,2.921,2.494,2.6,85,9.76,45.13
64.65,-0.162,2.688194394779188,2.493,2.6,85,9.76,45.01
64.71,-0.196,2.3,2.493,2.6,85,9.76,44.99
64.77,0.159,1.989,2.491,2.601,85,9.76,45.0
64.84,-0.128,1.74,2.491,2.603,85,9.76,44.99
64.9,-0.046,0.912,2.491,2.603,85,9.76,44.95
64.97,0.079,1.492,2.491,2.603,85,9.76,44.94
65.03,0.118,1.802,2.488,2.604,85,9.76,45.03
65.1,-0.153,1.947215909090909,2.488,2.605,85,9.76,45.2
65.16,-0.186,2.01,2.488,2.605,85,9.76,45.43
65.23,-0.185,1.388,2.487,2.605,85,9.76,45.57
65.29,-0.123,0.477,2.486,2.608,85,9.76,45.67
65.35,-0.201,1.678,2.486,2.608,85,9.76,45.87
65.42,-0.04,1.699,2.486,2.608,85,9.76,46.15
65.48,0.119,1.471,2.483,2.608,85,9.76,46.47
65.55,-0.144,1.616,2.483,2.608,85,9.76,46.72
65.61,-0.066,2.548,2.483,2.608,86,9.76,46.89
65.68,0.075,1.906,2.481,2.608,86,9.76,47.38
65.74,0.021,1.347,2.481,2.609,86,9.76,47.42
65.81,-0.207,1.181,2.481,2.61,86,9.76,47.66
65.87,-0.209,1.285,2.481,2.61,86,9.76,47.92
65.94,-0.184,1.16,2.481,2.61,86,9.76,48.05
66.0,-0.154,1.202,2.48,2.61,86,9.76,48.12
66.06,-0.225,1.948,2.479,2.61,86,9.76,48.24
66.13,0.178,1.637,2.479,2.61,86,9.76,48.42
66.19,-0.199,0.642,2.479,2.61,86,9.76,48.63
66.26,-0.105,0.373,2.479,2.61,86,9.76,48.74
66.32,0.002,2.113,2.476,2.61,87,9.76,48.75
66.39,0.126,1.222,2.476,2.611,87,9.76,48.75
66.45,-0.1,1.74,2.476,2.61,87,9.76,48.75
66.52,-0.188,1.202,2.476,2.613,87,9.76,48.73
66.58,-0.176,1.927,2.476,2.611,87,9.76,48.64
66.65,-0.123,1.285,2.474,2.61,87,9.76,48.42
66.71,-0.145,1.782,2.474,2.61,87,9.76,48.25
66.77,-0.187,1.367,2.474,2.611,87,9.76,48.11
66.84,0.24,1.761,2.474,2.611,87,9.76,48.0
66.9,-0.14,0.414,2.474,2.613,87,9.76,47.86
66.97,-0.013,0.663,2.471,2.613,87,9.76,47.64
67.03,0.116,1.823,2.471,2.613,87,9.77,47.43
67.1,0.196,2.362,2.471,2.613,87,9.77,47.26
67.16,-0.066,1.471,2.471,2.613,87,9.76,47.08
67.23,-0.097,1.367,2.471,2.613,86,9.77,46.87
67.29,-0.081,1.678,2.469,2.613,86,9.76,46.61
67.35,-0.038,1.637,2.469,2.613,86,9.76,46.21
67.42,-0.05,2.3,2.469,2.613,86,9.76,45.9
67.48,-0.095,1.057,2.469,2.613,86,9.76,45.67
67.55,0.324,1.305,2.469,2.613,86,9.76,45.52
67.61,-0.076,2.486,2.469,2.613,86,9.76,45.39
67.68,0.063,2.258,2.469,2.613,86,9.76,45.23
67.74,0.182,1.9727248322849524,2.466,2.613,86,9.76,45.12
67.81,0.287,1.699,2.466,2.613,86,9.76,45.08
67.87,0.021,1.4590233882919599,2.466,2.613,86,9.77,45.05
67.94,-0.04,1.2238819007039645,2.466,2.613,84,9.76,44.98
68.0,-0.035,1.0450494627639868,2.464,2.613,84,9.77,44.86
68.06,-0.047,0.974,2.464,2.613,84,9.76,44.65
68.13,0.01,2.838,2.464,2.611,84,9.76,44.56
68.19,-0.058,2.693,2.464,2.613,84,9.76,44.5
68.26,-0.087,2.341,2.462,2.611,84,9.76,44.45
68.32,0.245,1.678,2.461,2.611,84,9.76,44.33
68.39,-0.008,1.305,2.461,2.613,84,9.77,43.94
68.45,0.065,2.631,2.461,2.613,84,9.78,43.37
68.52,0.186,2.175,2.461,2.613,84,9.78,42.85
68.58,0.156,1.968,2.461,2.613,84,9.77,42.64
68.65,-0.157,2.175,2.461,2.613,79,9.78,42.71
68.71,-0.225,1.16,2.461,2.613,79,9.77,42.9
68.77,-0.266,0.767,2.461,2.613,79,9.77,42.93
68.84,-0.278,0.849,2.46,2.613,79,9.77,42.77
68.9,-0.281,0.994,2.46,2.613,79,9.77,42.5
68.97,-0.388,0.539,2.459,2.613,79,9.77,42.27
69.03,-0.005,0.642,2.459,2.613,79,9.77,42.46
69.1,-0.15199999999999997,0.849,2.459,2.61,79,9.77,42.68
69.16,-0.299,1.015,2.459,2.61,79,9.78,43.17
69.23,-0.214,0.787,2.459,2.61,80,9.77,44.02
69.29,-0.085,0.601,2.459,2.61,80,9.78,44.92
69.35,-0.33,0.746,2.459,2.61,80,9.78,45.7
69.42,-0.31037037037037035,0.849,2.459,2.611,80,9.77,46.27
69.48,-0.2612962962962963,0.601,2.459,2.613,80,9.77,46.4
69.55,-0.1975,0.601,2.459,2.613,80,9.76,46.09
69.61,-0.1337037037037037,0.704,2.459,2.613,80,9.76,46.09
69.68,-0.08462962962962961,0.704,2.459,2.613,80,9.76,46.12
69.74,-0.065,0.704,2.46,2.613,80,9.76,46.07
69.81,-0.202,0.663,2.461,2.61,80,9.76,45.92
69.87,-0.339,0.456,2.461,2.61,80,9.76,45.65
69.94,-0.23,0.559,2.461,2.61,84,9.76,45.55
70.0,-0.106,0.497,2.461,2.61,84,9.76,45.55
70.06,-0.331,0.477,2.461,2.61,84,9.77,45.51
70.13,-0.3308833393113343,0.6135185185185185,2.461,2.61,84,9.77,45.48
70.19,-0.33052223816355814,0.9548148148148148,2.461,2.61,84,9.78,45.43
70.26,-0.32990001793400286,1.3984999999999999,2.461,2.61,84,9.78,45.24
70.32,-0.329,1.842185185185185,2.464,2.613,84,9.78,45.08
70.39,-0.24764689941017057,2.1834814814814814,2.464,2.61,84,9.78,44.95
70.45,-0.09765678303841865,2.32,2.464,2.613,84,9.78,44.84
70.52,-0.017,2.155,2.464,2.613,84,9.78,44.7
70.58,-0.269,2.175,2.464,2.613,84,9.77,44.65
70.65,-0.152,1.74,2.464,2.613,84,9.77,44.79
70.71,0.029,1.359280211620998,2.464,2.613,80,9.77,44.77
70.77,0.087,1.0057202639700966,2.464,2.613,80,9.76,44.66
70.84,-0.155,0.663,2.464,2.614,80,9.76,44.47
70.9,-0.123,0.331,2.464,2.615,80,9.76,44.55
70.97,-0.089,2.03,2.464,2.615,80,9.76,44.53
71.03,-0.079,1.927946284979093,2.464,2.616,80,9.76,44.15
71.1,-0.009,1.687892569958186,2.464,2.615,80,9.76,43.36
71.16,0.081,1.409,2.464,2.615,80,9.76,42.77
71.23,0.003,1.077,2.464,2.614,80,9.76,42.47
71.29,0.29,1.119,2.464,2.613,80,9.76,42.75
71.35,0.124,1.575,2.464,2.613,80,9.76,42.93
71.42,0.098,1.9435166071705725,2.464,2.613,73,9.76,42.35
71.48,0.143,2.134,2.464,2.613,73,9.77,41.92
71.55,0.263,0.891,2.464,2.613,73,9.76,41.93
71.61,0.065,0.725,2.462,2.611,73,9.76,42.59
71.68,-0.136,0.539,2.461,2.61,73,9.76,43.23
71.74,-0.149,0.767,2.461,2.611,73,9.76,43.52
71.81,-0.154,0.953,2.461,2.611,73,9.76,43.32
71.87,-0.152,0.808,2.461,2.61,73,9.74,43.13
71.94,-0.105,0.808,2.461,2.61,73,9.74,42.93
72.0,-0.131,0.497,2.461,2.611,73,9.74,42.82
72.06,-0.17,0.601,2.461,2.61,73,9.73,42.89
72.13,0.195,0.787,2.461,2.61,73,9.74,43.05
72.19,-0.108,0.601,2.461,2.61,73,9.74,43.0
72.26,-0.001,0.746,2.461,2.609,73,9.76,43.11
72.32,0.117,0.58,2.461,2.608,73,9.76,43.34
72.39,0.206,0.601,2.461,2.608,73,9.76,43.44
72.45,-0.061,0.435,2.461,2.608,73,9.76,43.4
72.52,-0.124,0.746,2.461,2.608,73,9.76,43.41
72.58,-0.138,0.58,2.461,2.606,73,9.76,43.38
72.65,-0.169,1.575,2.461,2.606,73,9.76,43.27
72.71,-0.188,2.1248075166367273,2.459,2.605,73,9.76,43.2
72.77,-0.211,2.5797455703437575,2.459,2.605,73,9.76,43.2
72.84,-0.198,2.889560838878909,2.459,2.605,73,9.76,43.34
72.9,-0.19,3.004,2.459,2.605,73,9.76,43.49
72.97,-0.243,2.8577285123966942,2.459,2.606,73,9.76,43.65
73.03,0.156,2.631,2.459,2.608,73,9.76,43.93
73.1,-0.223,2.486,2.459,2.608,73,9.76,44.35
73.16,-0.081,1.989,2.459,2.608,73,9.76,44.81
73.23,0.048,1.616,2.457,2.608,73,9.76,45.19
73.29,0.21,2.735,2.456,2.609,73,9.76,45.6
73.35,-0.043,0.994,2.456,2.61,73,9.76,45.87
73.42,-0.107,0.477,2.456,2.61,74,9.77,46.04
73.48,-0.071,0.787,2.456,2.61,74,9.77,46.18
73.55,-0.055,1.5411026637069924,2.456,2.61,74,9.77,46.29
73.61,-0.028,2.093,2.456,2.611,74,9.77,46.35
73.68,0.039,0.787,2.456,2.611,74,9.77,46.46
73.74,-0.008,1.181,2.456,2.61,74,9.77,46.64
73.81,0.11,1.471,2.456,2.61,74,9.77,47.03
73.87,0.352,0.642,2.456,2.61,74,9.78,47.7
73.94,0.182,0.352,2.456,2.61,74,9.78,48.19
74.0,0.261,0.559,2.455,2.61,74,9.78,48.49
74.06,0.31295796460176994,0.642,2.454,2.61,74,9.78,48.92
74.13,0.338,1.0526284760845384,2.454,2.61,74,9.78,49.41
74.19,0.126,1.7927808676307007,2.454,2.61,74,9.78,49.86
74.26,0.141,2.501542825361513,2.454,2.61,74,9.78,50.09
74.32,0.157,2.818,2.454,2.61,74,9.78,50.0
74.39,0.147,1.533,2.454,2.61,74,9.78,49.72
74.45,0.215,1.7814999999999999,2.454,2.609,74,9.78,49.62
74.52,0.149,2.03,2.454,2.611,74,9.78,49.45
74.58,0.151,0.559,2.454,2.61,74,9.78,49.28
74.65,0.17880584590012896,0.787,2.451,2.61,74,9.78,49.05
74.71,0.234,2.01,2.454,2.61,74,9.78,48.66
74.77,0.32,0.87,2.452,2.608,74,9.78,48.33
74.84,0.28811111111111115,2.569,2.451,2.606,74,9.78,48.14
74.9,0.2288888888888889,1.119,2.451,2.608,74,9.78,47.92
74.97,0.197,2.134,2.451,2.608,74,9.78,47.42
75.03,0.198,1.098,2.451,2.61,74,9.78,46.79
75.1,0.203,1.057,2.451,2.608,74,9.78,46.16
75.16,0.198,0.394,2.449,2.608,74,9.78,45.68
75.23,0.238,0.435,2.449,2.608,74,9.78,45.25
75.29,0.201,0.456,2.449,2.606,74,9.78,44.87
75.35,0.162,0.435,2.449,2.605,75,9.78,44.51
75.42,0.17112733887733889,0.849,2.449,2.605,75,9.78,44.19
75.48,0.196,0.539,2.449,2.605,75,9.78,43.89
75.55,0.295,0.684,2.449,2.605,75,9.78,43.69
75.61,0.2849094058086864,0.912,2.449,2.609,75,9.78,43.52
75.68,0.2592632560618172,0.497,2.449,2.605,75,9.78,43.45
75.74,0.225,0.373,2.449,2.605,75,9.78,43.47
75.81,0.165,0.311,2.449,2.608,75,9.78,43.46
75.87,0.178,0.435,2.449,2.605,75,9.78,43.32
75.94,0.159,0.352,2.449,2.609,75,9.78,42.95
76.0,0.198,0.311,2.449,2.61,75,9.78,42.53
76.06,0.179,0.58,2.45,2.61,75,9.78,42.53
76.13,0.118,0.331,2.451,2.61,75,9.78,42.67
76.19,0.1097196132596685,0.787,2.451,2.61,75,9.78,42.95
76.26,0.107,0.518,2.451,2.61,75,9.79,43.33
76.32,0.203,0.311,2.454,2.613,75,9.78,43.45
76.39,0.315,0.29,2.454,2.61,75,9.79,43.48
76.45,0.22832147024504085,0.311,2.455,2.61,75,9.78,43.62
76.52,0.097,0.331,2.456,2.61,75,9.78,43.88
76.58,0.019,1.015,2.456,2.61,75,9.78,44.21
76.65,0.024,1.575,2.457,2.61,75,9.79,44.5
76.71,0.032,0.373,2.459,2.61,75,9.79,44.71
76.77,0.071,0.331,2.459,2.61,75,9.8,44.98
76.84,-0.013,0.394,2.461,2.61,75,9.79,45.36
76.9,0.242,0.373,2.461,2.61,58,9.78,45.81
76.97,0.112,0.746,2.461,2.61,58,9.78,46.16
77.03,0.072,0.414,2.462,2.61,58,9.78,46.34
77.1,0.166,0.352,2.464,2.61,58,9.78,46.55
77.16,0.325,0.352,2.464,2.61,58,9.78,46.86
77.23,0.118,0.29,2.466,2.61,58,9.78,47.17
77.29,-0.056,0.331,2.465,2.61,82,9.78,47.38
77.35,-0.055,0.331,2.466,2.61,82,9.78,47.56
77.42,-0.044,0.331,2.466,2.61,82,9.78,47.68
77.48,0.0,0.352,2.466,2.61,82,9.78,47.82
77.55,-0.077,0.331,2.466,2.61,82,9.78,47.94
77.61,0.182,0.456,2.466,2.61,82,9.78,48.06
77.68,0.09,0.477,2.466,2.61,82,9.78,48.19
77.74,0.035,0.331,2.466,2.61,82,9.78,48.18
77.81,0.138,0.331,2.469,2.61,82,9.78,48.09
77.87,0.293,0.311,2.466,2.61,82,9.78,48.03
77.94,0.113,0.352,2.466,2.61,82,9.78,48.0
78.0,-0.008,0.331,2.466,2.61,82,9.78,47.88
78.06,0.022,0.352,2.466,2.61,82,9.78,47.71
78.13,0.04,0.311,2.466,2.61,82,9.78,47.4
78.19,0.106,0.352,2.466,2.61,82,9.78,47.03
78.26,0.059,0.311,2.466,2.61,82,9.78,46.68
78.32,0.03,0.373,2.466,2.613,82,9.78,46.37
78.39,0.06038793879387938,0.684,2.464,2.613,82,9.78,46.06
78.45,0.121,0.373,2.464,2.613,82,9.78,45.73
78.52,0.203,0.331,2.464,2.613,82,9.78,45.35
78.58,0.351,0.311,2.464,2.615,82,9.78,45.04
78.65,0.24030960729312761,0.311,2.464,2.615,82,9.78,44.79
78.71,0.109,0.311,2.462,2.615,82,9.78,44.55
78.77,0.082,0.331,2.461,2.616,80,9.78,44.31
78.84,0.088,0.331,2.461,2.618,80,9.78,44.04
78.9,0.08,0.331,2.461,2.618,80,9.78,43.73
78.97,0.135,0.311,2.461,2.619,80,9.78,43.56
79.03,0.045,0.331,2.461,2.62,80,9.78,43.49
79.1,0.071,0.373,2.461,2.62,80,9.78,43.46
79.16,0.358,0.663,2.46,2.62,80,9.78,43.44
79.23,0.131,0.311,2.459,2.62,80,9.78,43.38
79.29,0.216,0.311,2.46,2.62,80,9.78,43.34
79.35,0.375,0.352,2.459,2.619,80,9.78,43.36
79.42,0.301,0.311,2.459,2.62,80,9.78,43.39
79.48,0.06,0.331,2.459,2.62,79,9.78,43.39
79.55,0.051,0.311,2.459,2.618,79,9.78,43.38
79.61,0.047,0.331,2.459,2.618,79,9.78,43.27
79.68,0.034,0.331,2.457,2.62,79,9.78,43.14
79.74,0.062,0.331,2.456,2.618,79,9.78,43.1
79.81,0.006,0.311,2.456,2.618,79,9.78,43.12
79.87,-0.023,0.311,2.456,2.618,79,9.78,43.15
79.94,-0.023,0.559,2.456,2.619,79,9.78,43.16
80.0,-0.023,0.456,2.454,2.618,79,9.79,43.13
80.06,0.107,0.331,2.455,2.618,79,9.78,43.17
80.13,0.218,0.311,2.454,2.618,79,9.79,43.25
80.19,0.347,0.311,2.454,2.618,79,9.79,43.26
80.26,0.074,0.311,2.454,2.618,79,9.79,43.28
80.32,-0.027,0.352,2.454,2.618,74,9.8,43.29
80.39,-0.029,0.331,2.454,2.618,74,9.79,43.28
80.45,-0.045,0.311,2.454,2.618,74,9.79,43.18
80.52,-0.058,0.331,2.454,2.618,74,9.79,43.13
80.58,-0.009,0.311,2.452,2.618,74,9.8,43.23
80.65,-0.096,0.311,2.452,2.618,74,9.8,43.4
80.71,-0.09,0.394,2.452,2.618,74,9.8,43.62
80.77,0.221,0.601,2.451,2.618,74,9.8,43.81
80.84,-0.032,0.311,2.451,2.618,74,9.8,43.98
80.9,0.04,0.29,2.451,2.618,74,9.79,44.19
80.97,0.185,0.331,2.451,2.618,74,9.8,44.47
81.03,0.128,0.29,2.451,2.618,74,9.8,44.77
81.1,-0.131,0.311,2.451,2.618,74,9.8,45.0
81.16,-0.143,0.311,2.451,2.618,74,9.8,45.22
81.23,-0.135,0.311,2.451,2.618,74,9.79,45.32
81.29,-0.118,0.311,2.45,2.618,74,9.8,45.42
81.35,-0.088,0.373,2.449,2.618,74,9.8,45.63
81.42,-0.167,0.331,2.449,2.618,74,9.8,45.9
81.48,0.139,0.414,2.449,2.618,74,9.8,46.23
81.55,-0.065,0.497,2.449,2.618,74,9.8,46.47
81.61,-0.063,0.311,2.449,2.618,74,9.8,46.62
81.68,0.036,0.311,2.449,2.618,79,9.8,46.79
81.74,0.188,0.352,2.449,2.618,79,9.8,47.04
81.81,-0.032,0.311,2.449,2.616,79,9.8,47.31
81.87,-0.183,0.311,2.446,2.615,79,9.8,47.51
81.94,-0.18,0.331,2.446,2.615,79,9.8,47.69
82.0,-0.183,0.331,2.446,2.616,79,9.8,47.72
82.06,-0.159,0.331,2.446,2.615,79,9.8,47.75
82.13,-0.132,0.331,2.446,2.615,79,9.8,47.82
82.19,-0.201,0.311,2.446,2.615,79,9.8,47.89
82.26,0.175,0.497,2.446,2.615,79,9.8,47.93
82.32,-0.11,0.456,2.445,2.615,79,9.8,47.87
82.39,-0.062,0.331,2.444,2.615,79,9.8,47.78
82.45,0.046,0.311,2.444,2.615,78,9.8,47.72
82.52,0.197,0.311,2.444,2.615,78,9.8,47.71
82.58,-0.023,0.352,2.444,2.615,78,9.8,47.67
82.65,-0.141,0.311,2.444,2.615,78,9.8,47.56
82.71,-0.117,0.331,2.444,2.615,78,9.8,47.41
82.77,-0.105,0.331,2.444,2.615,78,9.8,47.13
82.84,-0.095,0.29,2.442,2.615,78,9.8,46.81
82.9,-0.084,0.311,2.441,2.615,78,9.8,46.56
82.97,-0.023,0.311,2.441,2.615,78,9.8,46.37
83.03,-0.06,0.331,2.441,2.615,78,9.8,46.21
83.1,-0.083,0.311,2.441,2.615,78,9.8,45.99
83.16,0.316,0.663,2.441,2.614,78,9.8,45.76
83.23,0.023,0.373,2.441,2.613,78,9.8,45.57
83.29,0.112,0.331,2.441,2.613,78,9.8,45.38
83.35,0.259,0.331,2.441,2.613,78,9.8,45.22
83.42,0.333,0.311,2.44,2.613,78,9.8,45.04
83.48,0.05,0.311,2.44,2.613,78,9.8,44.83
83.55,0.014,0.311,2.441,2.613,68,9.8,44.63
83.61,0.024,0.311,2.439,2.613,68,9.8,44.36
83.68,0.016,0.311,2.439,2.613,68,9.8,44.05
83.74,0.015,0.311,2.439,2.613,68,9.8,43.85
83.81,0.013,0.311,2.439,2.613,68,9.82,43.73
83.87,0.059,0.29,2.439,2.613,68,9.8,43.67
83.94,0.037,0.331,2.439,2.613,68,9.82,43.63
84.0,-0.002,0.311,2.439,2.613,68,9.82,43.54
84.06,0.00705988023952096,0.601,2.439,2.613,68,9.82,43.49
84.13,0.032,0.394,2.439,2.613,68,9.82,43.48
84.19,0.136,0.352,2.439,2.613,68,9.82,43.49
84.26,0.257,0.311,2.439,2.613,68,9.82,43.49
84.32,0.19413815789473685,0.311,2.439,2.613,68,9.82,43.5
84.39,0.089,0.311,2.439,2.613,68,9.82,43.49
84.45,0.004,0.331,2.436,2.613,65,9.82,43.49
84.52,0.008,0.331,2.437,2.613,65,9.82,43.44
84.58,0.0,0.352,2.436,2.611,65,9.82,43.3
84.65,-0.004,0.331,2.436,2.613,65,9.82,43.2
84.71,-0.011,0.311,2.436,2.613,65,9.82,43.19
84.77,-0.014,0.331,2.436,2.611,65,9.8,43.21
84.84,0.037,0.311,2.436,2.61,65,9.8,43.25
84.9,-0.03,0.311,2.436,2.61,65,9.8,43.25
84.97,0.002,0.352,2.436,2.61,65,9.8,43.25
85.03,0.28,0.601,2.436,2.61,65,9.8,43.28
85.1,0.052,0.331,2.436,2.61,65,9.8,43.31
85.16,0.126,0.29,2.436,2.61,65,9.8,43.35
85.23,0.285,0.311,2.436,2.61,65,9.8,43.37
85.29,0.244,0.311,2.435,2.61,65,9.8,43.39
85.35,-0.021,0.29,2.436,2.61,63,9.8,43.39
85.42,-0.04,0.311,2.436,2.61,63,9.82,43.4
85.48,-0.04,0.352,2.436,2.61,63,9.8,43.31
85.55,-0.055,0.311,2.436,2.61,63,9.82,43.2
85.61,-0.058,0.311,2.435,2.61,63,9.82,43.17
85.68,-0.066,0.311,2.435,2.61,63,9.82,43.18
85.74,-0.067,0.331,2.434,2.61,63,9.82,43.22
85.81,-0.022,0.331,2.434,2.61,63,9.82,43.25
85.87,-0.085,0.352,2.434,2.609,63,9.82,43.26
85.94,-0.07,0.373,2.434,2.609,63,9.82,43.26
86.0,0.221,0.725,2.434,2.609,63,9.8,43.3
86.06,-0.023,0.311,2.434,2.61,63,9.8,43.37
86.13,0.038,0.311,2.434,2.61,63,9.8,43.49
86.19,0.186,0.331,2.434,2.61,62,9.8,43.63
86.26,0.154,0.352,2.434,2.61,62,9.8,43.78
86.32,-0.136,0.331,2.434,2.61,62,9.82,43.96
86.39,-0.167,0.331,2.434,2.61,62,9.8,44.17
86.45,-0.166,0.331,2.434,2.61,62,9.83,44.29
86.52,-0.174,0.331,2.432,2.608,62,9.83,44.38
86.58,-0.18,0.311,2.431,2.608,62,9.83,44.6
86.65,-0.183,0.352,2.431,2.608,62,9.8,44.88
86.71,-0.154,0.331,2.431,2.608,62,9.82,45.19
86.77,-0.222,0.352,2.431,2.608,62,9.83,45.43
86.84,-0.052,0.477,2.431,2.608,62,9.84,45.58
86.9,-0.004,0.497,2.431,2.608,62,9.83,45.76
86.97,-0.133,0.311,2.431,2.608,62,9.83,46.02
87.03,-0.048,0.311,2.431,2.608,67,9.83,46.3
87.1,0.118,0.331,2.431,2.608,67,9.85,46.54
87.16,-0.027,0.352,2.431,2.608,67,9.85,46.77
87.23,-0.247,0.373,2.431,2.608,67,9.85,46.98
87.29,-0.245,0.311,2.431,2.608,67,9.84,47.16
87.35,-0.238,0.373,2.431,2.608,67,9.83,47.19
87.42,-0.234,0.311,2.431,2.608,67,9.84,47.19
87.48,-0.183,0.29,2.431,2.608,67,9.84,47.23
87.55,-0.214,0.311,2.431,2.608,67,9.84,47.29
87.61,-0.253,0.331,2.431,2.608,67,9.86,47.35
87.68,0.173,0.58,2.431,2.608,67,9.84,47.34
87.74,-0.199,0.373,2.431,2.608,67,9.84,47.3
87.81,-0.097,0.352,2.431,2.608,67,9.84,47.27
87.87,0.041,0.331,2.431,2.605,73,9.83,47.29
87.94,0.141,0.331,2.431,2.605,73,9.83,47.31
88.0,-0.166,0.311,2.431,2.606,73,9.83,47.3
88.06,-0.219,0.311,2.431,2.605,73,9.83,47.3
88.13,-0.201,0.352,2.431,2.605,73,9.83,47.22
88.19,-0.193,0.29,2.431,2.605,73,9.84,47.03
88.26,-0.181,0.331,2.431,2.605,73,9.83,46.88
88.32,-0.109,0.311,2.431,2.605,73,9.83,46.79
88.39,-0.164,0.311,2.431,2.605,73,9.83,46.73
88.45,-0.178,0.373,2.431,2.605,73,9.83,46.68
88.52,0.225,0.663,2.431,2.605,73,9.84,46.5
88.58,-0.061,0.352,2.431,2.605,73,9.84,46.28
88.65,0.023,0.352,2.429,2.605,73,9.84,46.09
88.71,0.185,0.331,2.429,2.605,73,9.84,45.9
88.77,0.225,0.331,2.429,2.605,73,9.84,45.72
88.84,-0.054,0.352,2.429,2.605,73,9.84,45.5
88.9,-0.074,0.331,2.429,2.605,72,9.85,45.3
88.97,-0.055,0.352,2.429,2.605,72,9.84,44.99
89.03,-0.059,0.331,2.429,2.605,72,9.84,44.61
89.1,-0.056,0.352,2.429,2.605,72,9.84,44.3
89.16,-0.053,0.331,2.429,2.605,72,9.84,44.11
89.23,0.008,0.373,2.429,2.605,72,9.84,43.97
89.29,-0.057,0.352,2.429,2.605,72,9.84,43.89
89.35,-0.067,0.352,2.429,2.605,72,9.84,43.77
89.42,0.29,0.622,2.429,2.605,72,9.83,43.69
89.48,0.023,0.352,2.429,2.605,72,9.84,43.65
89.55,0.094,0.331,2.429,2.604,72,9.83,43.65
89.61,0.252,0.352,2.429,2.604,72,9.84,43.64
89.68,0.274,0.331,2.427,2.605,72,9.84,43.61
89.74,-0.017,0.352,2.429,2.604,72,9.84,43.6
89.81,-0.048,0.352,2.427,2.605,66,9.84,43.58
89.87,-0.043,0.352,2.427,2.603,66,9.84,43.5
89.94,-0.051,0.331,2.426,2.605,66,9.84,43.34
90.0,-0.058,0.331,2.426,2.603,66,9.84,43.27
90.06,-0.067,0.331,2.426,2.603,66,9.84,43.26
90.13,-0.016,0.29,2.426,2.603,66,9.84,43.29
90.19,-0.064,0.331,2.426,2.603,66,9.85,43.32
90.26,-0.095,0.331,2.426,2.603,66,9.85,43.29
90.32,0.268,0.601,2.426,2.603,66,9.85,43.29
90.39,-0.021,0.352,2.426,2.603,66,9.85,43.33
90.45,0.051,0.331,2.426,2.603,66,9.85,43.37
90.52,0.188,0.352,2.426,2.603,66,9.85,43.38
90.58,0.283,0.352,2.426,2.603,66,9.85,43.39
90.65,-0.025,0.331,2.426,2.603,66,9.85,43.39
90.71,-0.09,0.331,2.426,2.603,65,9.85,43.4
90.77,-0.089,0.331,2.426,2.603,65,9.85,43.36
90.84,-0.098,0.331,2.425,2.603,65,9.85,43.26
90.9,-0.11,0.311,2.424,2.603,65,9.85,43.25
90.97,-0.122,0.352,2.424,2.603,65,9.85,43.33
91.03,-0.133,0.311,2.424,2.603,65,9.84,43.44
91.1,-0.09,0.373,2.424,2.603,65,9.85,43.59
91.16,-0.15,0.311,2.424,2.603,65,9.85,43.69
91.23,-0.175,0.373,2.424,2.603,65,9.85,43.81
91.29,0.185,0.622,2.424,2.603,65,9.85,44.0
91.35,-0.1,0.352,2.424,2.603,65,9.85,44.23
91.42,-0.039,0.331,2.424,2.601,65,9.85,44.47
91.48,0.104,0.331,2.424,2.601,62,9.85,44.7
91.55,0.153,0.352,2.424,2.601,62,9.85,44.93
91.61,-0.158,0.331,2.424,2.6,62,9.84,45.12
91.68,-0.2,0.352,2.424,2.603,62,9.84,45.32
91.74,-0.189,0.311,2.424,2.6,62,9.84,45.44
91.81,-0.19,0.311,2.424,2.6,62,9.84,45.51
91.87,-0.189,0.331,2.424,2.6,62,9.85,45.67
91.94,-0.177,0.311,2.424,2.6,62,9.85,45.89
92.0,-0.138,0.331,2.424,2.601,62,9.85,46.15
92.06,-0.212,0.352,2.424,2.6,62,9.85,46.37
92.13,-0.01,0.477,2.424,2.6,62,9.85,46.46
92.19,0.004,0.539,2.424,2.6,62,9.85,46.56
92.26,-0.105,0.352,2.424,2.6,62,9.85,46.71
92.32,-0.008,0.269,2.424,2.6,68,9.86,46.87
92.39,0.167,0.311,2.424,2.6,68,9.85,47.01
92.45,0.022,0.331,2.424,2.6,68,9.85,47.09
92.52,-0.191,0.352,2.424,2.6,68,9.85,47.17
92.58,-0.188,0.311,2.424,2.6,68,9.86,47.23
92.65,-0.18,0.331,2.424,2.6,68,9.86,47.16
92.71,-0.179,0.331,2.424,2.6,68,9.86,47.05
92.77,-0.174,0.331,2.424,2.6,68,9.85,47.02
92.84,-0.116,0.352,2.424,2.6,68,9.86,47.0
92.9,-0.175,0.331,2.424,2.6,68,9.86,47.02
92.97,-0.196,0.352,2.424,2.6,68,9.85,46.97
93.03,0.213,0.58,2.422,2.6,68,9.86,46.87
93.1,-0.098,0.373,2.422,2.6,68,9.86,46.82
93.16,-0.02,0.311,2.422,2.599,68,9.86,46.81
93.23,0.133,0.331,2.422,2.6,68,9.86,46.81
93.29,0.178,0.311,2.421,2.598,68,9.86,46.79
93.35,-0.117,0.311,2.421,2.598,68,9.85,46.74
93.42,-0.145,0.331,2.421,2.598,69,9.85,46.66
93.48,-0.123,0.352,2.421,2.598,69,9.85,46.49
93.55,-0.114,0.311,2.421,2.598,69,9.85,46.23
93.61,-0.106,0.331,2.421,2.598,69,9.85,46.03
93.68,-0.099,0.352,2.421,2.598,69,9.85,45.87
93.74,-0.031,0.373,2.421,2.598,69,9.85,45.75
93.81,-0.083,0.352,2.421,2.598,69,9.85,45.63
93.87,-0.103,0.373,2.421,2.598,69,9.85,45.42
93.94,0.284,0.642,2.421,2.598,69,9.85,45.21
94.0,0.002,0.373,2.421,2.598,69,9.85,45.05
94.06,0.083,0.373,2.421,2.598,69,9.85,44.91
94.13,0.242,0.311,2.42,2.598,69,9.85,44.75
94.19,0.312,0.352,2.419,2.598,69,9.85,44.6
94.26,0.007,0.331,2.419,2.598,69,9.85,44.44
94.32,-0.03,0.311,2.42,2.598,69,9.83,44.3
94.39,-0.014,0.311,2.419,2.598,69,9.83,44.08
94.45,-0.016,0.311,2.419,2.598,69,9.83,43.8
94.52,-0.018,0.311,2.419,2.598,69,9.83,43.61
94.58,-0.02,0.352,2.419,2.598,69,9.83,43.53
94.65,-0.019,0.311,2.42,2.598,69,9.84,43.5
94.71,0.035,0.352,2.419,2.598,69,9.85,43.49
94.77,-0.024,0.331,2.419,2.598,69,9.85,43.44
94.84,-0.002,0.373,2.419,2.598,69,9.85,43.42
94.9,0.314,0.642,2.419,2.598,66,9.84,43.43
94.97,0.065,0.352,2.419,2.598,66,9.84,43.43
95.03,0.144,0.311,2.419,2.598,66,9.83,43.44
95.1,0.309,0.331,2.419,2.596,66,9.84,43.45
95.16,0.302,0.373,2.419,2.598,66,9.83,43.46
95.23,0.013,0.331,2.419,2.595,66,9.83,43.45
95.29,-0.013,0.331,2.419,2.598,66,9.83,43.44
95.35,-0.009,0.311,2.419,2.596,66,9.84,43.35
95.42,-0.018,0.311,2.419,2.596,66,9.84,43.21
95.48,-0.027,0.331,2.419,2.598,66,9.84,43.18
95.55,-0.035,0.352,2.419,2.595,66,9.84,43.2
95.61,-0.027,0.331,2.419,2.595,66,9.84,43.22
95.68,-0.008,0.331,2.419,2.595,66,9.84,43.23
95.74,-0.072,0.311,2.419,2.595,66,9.84,43.22
95.81,0.165,0.559,2.417,2.595,66,9.84,43.22
95.87,0.051,0.539,2.419,2.595,67,9.84,43.27
95.94,0.007,0.352,2.417,2.595,67,9.84,43.38
96.0,0.092,0.331,2.417,2.595,67,9.84,43.54
96.06,0.266,0.331,2.416,2.595,67,9.84,43.72
96.13,0.107,0.331,2.416,2.595,67,9.84,43.89
96.19,-0.12,0.331,2.416,2.595,67,9.84,44.07
96.26,-0.13,0.373,2.416,2.595,67,9.84,44.27
96.32,-0.126,0.373,2.416,2.595,67,9.84,44.37
96.39,-0.13,0.331,2.416,2.595,67,9.84,44.5
96.45,-0.133,0.331,2.416,2.595,67,9.84,44.71
96.52,-0.097,0.331,2.416,2.595,67,9.84,44.96
96.58,-0.122,0.331,2.416,2.595,68,9.84,45.25
96.65,-0.167,0.311,2.416,2.595,68,9.84,45.5
96.71,0.252,0.622,2.416,2.595,68,9.85,45.66
96.77,-0.142,0.414,2.416,2.595,68,9.84,45.86
96.84,-0.038,0.394,2.416,2.595,68,9.84,46.1
96.9,0.087,0.331,2.415,2.595,68,9.85,46.38
96.97,0.221,0.352,2.416,2.594,68,9.84,46.65
97.03,-0.086,0.331,2.415,2.595,68,9.84,46.86
97.1,-0.174,0.331,2.416,2.595,68,9.85,47.03
97.16,-0.166,0.311,2.414,2.595,68,9.85,47.14
97.23,-0.165,0.331,2.415,2.594,68,9.85,47.11
97.29,-0.161,0.331,2.415,2.594,68,9.84,47.09
97.35,-0.105,0.352,2.415,2.594,68,9.83,47.09
97.42,-0.146,0.311,2.414,2.593,68,9.83,47.1
97.48,-0.181,0.311,2.416,2.593,68,9.83,47.1
97.55,0.247,0.518,2.414,2.595,68,9.83,47.0
97.61,-0.122,0.373,2.414,2.595,68,9.82,46.87
97.68,-0.018,0.352,2.414,2.593,68,9.82,46.79
97.74,0.115,0.311,2.414,2.593,71,9.82,46.75
97.81,0.226,0.331,2.414,2.593,71,9.83,46.68
97.87,-0.068,0.352,2.414,2.593,71,9.83,46.56
97.94,-0.125,0.331,2.414,2.593,71,9.83,46.41
98.0,-0.105,0.331,2.414,2.593,71,9.83,46.23
98.06,-0.097,0.331,2.414,2.593,71,9.83,45.92
98.13,-0.089,0.311,2.414,2.593,71,9.83,45.63
98.19,-0.081,0.311,2.414,2.593,71,9.83,45.43
98.26,-0.014,0.331,2.414,2.593,71,9.83,45.29
98.32,-0.076,0.331,2.411,2.593,71,9.83,45.2
98.39,-0.086,0.331,2.411,2.593,71,9.83,45.05
98.45,0.285,0.684,2.412,2.593,71,9.83,44.86
98.52,0.004,0.352,2.411,2.593,71,9.83,44.69
98.58,0.082,0.352,2.411,2.593,71,9.83,44.57
98.65,0.242,0.331,2.411,2.593,71,9.83,44.47
98.71,0.284,0.331,2.411,2.593,71,9.83,44.36
98.77,-0.019,0.331,2.411,2.593,71,9.83,44.22
98.84,-0.053,0.331,2.411,2.593,67,9.83,44.08
98.9,-0.04,0.331,2.411,2.593,67,9.83,43.89
98.97,-0.043,0.352,2.411,2.593,67,9.83,43.67
99.03,-0.046,0.331,2.411,2.593,67,9.83,43.52
99.1,-0.046,0.331,2.411,2.593,67,9.83,43.47
99.16,-0.001,0.373,2.411,2.593,67,9.83,43.44
99.23,-0.023,0.331,2.411,2.593,67,9.83,43.45
99.29,-0.064,0.352,2.411,2.593,67,9.83,43.41
99.35,0.335,0.663,2.411,2.593,67,9.83,43.39
99.42,-0.038,0.435,2.411,2.593,67,9.83,43.4
99.48,0.071,0.331,2.411,2.593,67,9.83,43.43
99.55,0.196,0.331,2.411,2.591,67,9.83,43.44
99.61,0.344,0.352,2.411,2.591,67,9.83,43.44
99.68,0.058,0.331,2.411,2.591,67,9.83,43.44
99.74,-0.042,0.331,2.411,2.59,65,9.83,43.44
99.81,-0.037,0.331,2.411,2.591,65,9.83,43.42
99.87,-0.037,0.331,2.411,2.59,65,9.83,43.29
99.94,-0.041,0.331,2.411,2.59,65,9.83,43.21
100.0,-0.046,0.373,2.411,2.59,65,9.83,43.21
100.06,-0.041,0.352,2.411,2.59,65,9.83,43.22
100.13,0.011,0.373,2.41,2.59,65,9.83,43.26
100.19,-0.059,0.352,2.41,2.59,65,9.83,43.26
100.26,-0.004,0.394,2.411,2.59,65,9.83,43.26
100.32,0.246,0.622,2.411,2.59,65,9.83,43.28
100.39,0.032,0.331,2.411,2.59,65,9.83,43.31
100.45,0.113,0.331,2.41,2.59,65,9.83,43.34
100.52,0.287,0.331,2.411,2.59,65,9.83,43.36
100.58,0.261,0.331,2.411,2.59,65,9.83,43.37
100.65,-0.013,0.29,2.41,2.59,65,9.83,43.37
100.71,-0.039,0.373,2.411,2.59,64,9.83,43.37
100.77,-0.035,0.311,2.409,2.59,64,9.83,43.31
100.84,-0.045,0.331,2.409,2.59,64,9.83,43.22
100.9,-0.054,0.352,2.409,2.59,64,9.83,43.26
100.97,-0.062,0.331,2.409,2.59,64,9.83,43.37
101.03,-0.015,0.29,2.409,2.59,64,9.83,43.53
101.1,-0.088,0.331,2.409,2.59,64,9.83,43.72
101.16,-0.093,0.394,2.409,2.59,64,9.83,43.87
101.23,0.237,0.58,2.409,2.59,64,9.83,44.05
101.29,-0.028,0.352,2.409,2.59,64,9.83,44.26
101.35,0.037,0.373,2.409,2.59,64,9.83,44.48
101.42,0.189,0.311,2.407,2.59,64,9.83,44.72
101.48,0.196,0.352,2.406,2.59,64,9.83,44.94
101.55,-0.109,0.331,2.406,2.59,65,9.83,45.13
101.61,-0.143,0.311,2.406,2.59,65,9.83,45.33
101.68,-0.133,0.311,2.406,2.59,65,9.83,45.45
101.74,-0.138,0.331,2.406,2.589,65,9.83,45.54
101.81,-0.14,0.331,2.406,2.589,65,9.83,45.71
101.87,-0.086,0.331,2.406,2.588,65,9.83,45.92
101.94,-0.153,0.331,2.406,2.589,65,9.83,46.17
102.0,-0.176,0.352,2.406,2.589,65,9.83,46.41
102.06,0.22,0.539,2.406,2.588,65,9.83,46.51
102.13,-0.093,0.331,2.406,2.588,65,9.83,46.59
102.19,-0.02,0.373,2.405,2.588,65,9.83,46.74
102.26,0.129,0.352,2.405,2.588,70,9.83,46.88
102.32,0.18,0.331,2.406,2.588,70,9.83,47.02
102.39,-0.12,0.373,2.406,2.588,70,9.83,47.06
102.45,-0.156,0.331,2.405,2.588,70,9.83,47.08
102.52,-0.148,0.352,2.404,2.588,70,9.83,47.01
102.58,-0.146,0.331,2.404,2.588,70,9.84,46.84
102.65,-0.137,0.311,2.404,2.588,70,9.83,46.74
102.71,-0.071,0.331,2.404,2.588,70,9.84,46.69
102.77,-0.136,0.331,2.404,2.588,70,9.84,46.7
102.84,-0.141,0.373,2.404,2.588,70,9.84,46.67
102.9,0.246,0.559,2.404,2.588,70,9.84,46.52
102.97,-0.04,0.331,2.404,2.588,70,9.84,46.32
103.03,0.043,0.352,2.404,2.588,70,9.84,46.18
103.1,0.206,0.311,2.402,2.588,70,9.84,46.03
103.16,0.234,0.29,2.402,2.588,70,9.84,45.89
103.23,-0.046,0.352,2.401,2.588,70,9.84,45.69
103.29,-0.066,0.352,2.401,2.588,71,9.84,45.47
103.35,-0.05,0.352,2.401,2.588,71,9.84,45.16
103.42,-0.051,0.311,2.401,2.588,71,9.84,44.81
103.48,-0.05,0.352,2.401,2.588,71,9.84,44.53
103.55,-0.047,0.311,2.401,2.588,71,9.84,44.34
103.61,0.013,0.331,2.401,2.588,71,9.84,44.19
103.68,-0.056,0.311,2.401,2.588,71,9.84,44.08
103.74,-0.041,0.394,2.401,2.588,71,9.84,43.95
103.81,0.284,0.622,2.401,2.588,71,9.84,43.85
103.87,0.029,0.29,2.401,2.588,71,9.84,43.79
103.94,0.106,0.373,2.401,2.588,71,9.84,43.76
104.0,0.271,0.331,2.401,2.588,71,9.84,43.74
104.06,0.277,0.394,2.401,2.588,71,9.84,43.7
104.13,-0.014,0.331,2.401,2.588,71,9.84,43.66
104.19,-0.043,0.331,2.4,2.588,67,9.84,43.62
104.26,-0.038,0.331,2.399,2.588,67,9.84,43.5
104.32,-0.049,0.331,2.399,2.588,67,9.84,43.35
104.39,-0.052,0.352,2.399,2.588,67,9.84,43.29
104.45,-0.053,0.352,2.399,2.588,67,9.84,43.28
104.52,0.003,0.352,2.399,2.588,67,9.84,43.3
104.58,-0.064,0.311,2.399,2.588,67,9.84,43.33
104.65,-0.062,0.435,2.399,2.588,67,9.84,43.32
104.71,0.27,0.622,2.399,2.586,67,9.84,43.32
104.77,0.013,0.311,2.399,2.586,67,9.84,43.34
104.84,0.086,0.331,2.399,2.588,67,9.84,43.38
104.9,0.247,0.331,2.399,2.588,67,9.84,43.39
104.97,0.272,0.29,2.399,2.588,67,9.84,43.4
105.03,-0.022,0.311,2.397,2.588,67,9.84,43.4
105.1,-0.06,0.352,2.399,2.586,66,9.84,43.4
105.16,-0.058,0.311,2.399,2.586,66,9.84,43.35
105.23,-0.066,0.352,2.396,2.586,66,9.84,43.25
105.29,-0.077,0.331,2.396,2.586,66,9.84,43.22
105.35,-0.089,0.311,2.396,2.585,66,9.84,43.27
105.42,-0.048,0.331,2.396,2.585,66,9.84,43.4
105.48,-0.095,0.331,2.396,2.585,66,9.84,43.56
105.55,0.233,0.601,2.396,2.585,66,9.84,43.72
105.61,0.212,0.601,2.396,2.585,66,9.84,43.9
105.68,-0.104,0.373,2.396,2.585,66,9.84,44.13
105.74,-0.018,0.352,2.395,2.585,70,9.84,44.39
105.81,0.105,0.331,2.395,2.585,70,9.85,44.62
105.87,0.224,0.311,2.395,2.585,70,9.85,45.01
105.94,-0.079,0.331,2.394,2.585,70,9.85,45.03
106.0,-0.164,0.331,2.394,2.585,70,9.85,45.21
106.06,-0.157,0.352,2.394,2.585,70,9.85,45.33
106.13,-0.161,0.311,2.394,2.585,70,9.85,45.37
106.19,-0.165,0.331,2.394,2.585,70,9.85,45.47
106.26,-0.161,0.352,2.394,2.585,70,9.85,45.65
106.32,-0.113,0.352,2.394,2.585,70,9.85,45.86
106.39,-0.188,0.352,2.394,2.585,70,9.84,46.05
106.45,-0.148,0.414,2.394,2.585,70,9.85,46.13
106.52,0.141,0.559,2.394,2.585,70,9.85,46.18
106.58,-0.108,0.331,2.394,2.585,70,9.85,46.28
106.65,-0.03,0.331,2.394,2.585,70,9.85,46.4
106.71,0.128,0.373,2.392,2.585,63,9.85,46.52
106.77,0.091,0.311,2.394,2.585,63,9.85,46.6
106.84,-0.177,0.311,2.392,2.585,63,9.85,46.63
106.9,-0.189,0.29,2.391,2.585,63,9.85,46.64
106.97,-0.183,0.394,2.391,2.585,63,9.85,46.53
107.03,-0.182,0.352,2.391,2.585,63,9.85,46.38
107.1,-0.177,0.352,2.391,2.585,63,9.85,46.3
107.16,-0.133,0.331,2.391,2.585,63,9.85,46.26
107.23,-0.148,0.331,2.391,2.585,63,9.85,46.26
107.29,-0.191,0.311,2.391,2.585,63,9.85,46.22
107.35,0.239,0.559,2.391,2.584,63,9.85,46.11
107.42,-0.162,0.414,2.391,2.584,63,9.85,46.0
107.48,-0.042,0.331,2.391,2.584,63,9.85,45.93
107.55,0.085,0.331,2.391,2.585,69,9.85,45.88
107.61,0.235,0.331,2.391,2.584,69,9.85,45.81
107.68,-0.033,0.331,2.391,2.584,69,9.85,45.71
107.74,-0.126,0.352,2.391,2.583,69,9.85,45.58
107.81,-0.107,0.331,2.391,2.583,69,9.85,45.42
107.87,-0.098,0.311,2.391,2.583,69,9.85,45.14
107.94,-0.094,0.331,2.391,2.584,69,9.85,44.91
108.0,-0.089,0.352,2.391,2.583,69,9.85,44.77
108.06,-0.038,0.311,2.391,2.583,69,9.85,44.67
108.13,-0.065,0.352,2.391,2.584,69,9.85,44.63
108.19,-0.101,0.331,2.391,2.583,69,9.85,44.51
108.26,0.302,0.642,2.391,2.583,69,9.85,44.37
108.32,-0.057,0.394,2.391,2.583,69,9.85,44.26
108.39,0.049,0.352,2.391,2.583,69,9.85,44.18
108.45,0.18,0.331,2.391,2.583,69,9.85,44.11
108.52,0.333,0.331,2.39,2.583,69,9.85,44.03
108.58,0.053,0.352,2.389,2.583,69,9.85,43.95
108.65,-0.041,0.311,2.391,2.583,66,9.85,43.88
108.71,-0.031,0.373,2.391,2.583,66,9.85,43.77
108.77,-0.034,0.331,2.391,2.583,66,9.85,43.56
108.84,-0.037,0.331,2.389,2.583,66,9.85,43.43
108.9,-0.042,0.331,2.389,2.583,66,9.85,43.39
108.97,-0.01,0.352,2.389,2.583,66,9.85,43.38
109.03,-0.012,0.373,2.389,2.583,66,9.85,43.4
109.1,-0.062,0.331,2.389,2.583,66,9.85,43.39
109.16,0.223,0.539,2.389,2.583,66,9.85,43.37
109.23,0.029,0.58,2.389,2.583,66,9.85,43.38
109.29,0.036,0.331,2.389,2.583,66,9.85,43.43
109.35,0.128,0.373,2.389,2.583,66,9.85,43.44
109.42,0.307,0.331,2.389,2.583,66,9.85,43.45
109.48,0.167,0.331,2.389,2.583,66,9.85,43.45
109.55,-0.05,0.29,2.389,2.583,64,9.85,43.44
109.61,-0.057,0.352,2.389,2.583,64,9.85,43.44
109.68,-0.059,0.352,2.388,2.583,64,9.85,43.35
109.74,-0.07,0.311,2.389,2.583,64,9.85,43.23
109.81,-0.076,0.29,2.388,2.583,64,9.85,43.26
109.87,-0.069,0.331,2.388,2.583,64,9.85,43.36
109.94,-0.041,0.352,2.388,2.583,64,9.85,43.53
110.0,-0.115,0.331,2.387,2.583,64,9.85,43.69
110.06,0.187,0.518,2.387,2.581,64,9.85,43.84
110.13,-0.037,0.539,2.387,2.583,64,9.85,44.01
110.19,-0.019,0.352,2.387,2.583,64,9.85,44.24
110.26,0.075,0.352,2.387,2.583,64,9.85,44.49
110.32,0.249,0.352,2.387,2.583,64,9.85,44.72
110.39,0.09,0.331,2.387,2.583,64,9.85,44.93
110.45,-0.117,0.29,2.387,2.58,67,9.85,45.11
110.52,-0.119,0.29,2.387,2.58,67,9.85,45.3
110.58,-0.117,0.331,2.387,2.583,67,9.85,45.38
110.65,-0.121,0.331,2.387,2.581,67,9.85,45.46
110.71,-0.089,0.352,2.387,2.583,67,9.85,45.65
110.77,-0.131,0.352,2.387,2.58,67,9.85,45.86
110.84,-0.159,0.352,2.387,2.581,67,9.85,46.1
110.9,0.265,0.435,2.387,2.581,67,9.85,46.26
110.97,-0.158,0.497,2.387,2.58,67,9.85,46.31
111.03,-0.041,0.331,2.385,2.581,67,9.85,46.4
111.1,0.069,0.352,2.385,2.58,72,9.85,46.67
111.16,0.228,0.352,2.384,2.58,72,9.85,46.69
111.23,-0.02,0.352,2.387,2.581,72,9.85,46.79
111.29,-0.15,0.311,2.384,2.58,72,9.85,46.84
111.35,-0.143,0.331,2.384,2.58,72,9.85,46.88
111.42,-0.144,0.331,2.385,2.583,72,9.85,46.79
111.48,-0.14,0.352,2.384,2.58,72,9.85,46.72
111.55,-0.075,0.331,2.384,2.58,72,9.85,46.68
111.61,-0.134,0.311,2.384,2.58,72,9.85,46.66
111.68,-0.159,0.352,2.384,2.58,72,9.85,46.66
111.74,0.246,0.58,2.384,2.58,72,9.85,46.59
111.81,-0.069,0.352,2.384,2.58,72,9.85,46.47
111.87,0.009,0.352,2.384,2.58,72,9.85,46.42
111.94,0.157,0.352,2.384,2.58,72,9.85,46.38
112.0,0.226,0.331,2.384,2.58,72,9.85,46.36
112.06,-0.065,0.331,2.384,2.58,72,9.85,46.3
112.13,-0.103,0.331,2.384,2.58,73,9.85,46.21
112.19,-0.087,0.331,2.384,2.58,73,9.85,46.04
112.26,-0.086,0.331,2.384,2.58,73,9.85,45.79
112.32,-0.084,0.311,2.384,2.58,73,9.85,45.6
112.39,-0.035,0.311,2.384,2.58,73,9.85,45.45
112.45,-0.06,0.352,2.384,2.58,73,9.85,45.35
112.52,-0.104,0.331,2.384,2.58,73,9.85,45.26
112.58,0.319,0.601,2.382,2.58,73,9.85,45.09
112.65,-0.083,0.414,2.382,2.58,73,9.85,44.91
112.71,0.037,0.352,2.383,2.58,73,9.85,44.77
112.77,0.162,0.352,2.382,2.58,73,9.85,44.65
112.84,0.318,0.331,2.382,2.58,73,9.85,44.54
112.9,0.047,0.331,2.382,2.58,73,9.85,44.41
112.97,-0.059,0.352,2.382,2.58,70,9.85,44.27
113.03,-0.054,0.311,2.382,2.58,70,9.85,44.11
113.1,-0.054,0.311,2.382,2.58,70,9.85,43.83
113.16,-0.059,0.331,2.382,2.58,70,9.85,43.64
113.23,-0.061,0.311,2.382,2.58,70,9.85,43.55
113.29,-0.003,0.311,2.382,2.58,70,9.85,43.5
113.35,-0.075,0.331,2.382,2.58,70,9.85,43.47
113.42,-0.084,0.352,2.382,2.58,70,9.85,43.48
113.48,0.271,0.663,2.382,2.58,70,9.85,43.44
113.55,-0.002,0.311,2.382,2.579,70,9.85,43.44
113.61,0.066,0.352,2.382,2.578,70,9.85,43.47
113.68,0.222,0.373,2.382,2.578,70,9.85,43.49
113.74,0.264,0.331,2.382,2.578,70,9.86,43.5
113.81,-0.041,0.352,2.382,2.578,70,9.85,43.49
113.87,-0.085,0.352,2.382,2.578,67,9.85,43.49
113.94,-0.079,0.331,2.382,2.58,67,9.85,43.42
114.0,-0.09,0.311,2.382,2.578,67,9.85,43.29
114.06,-0.099,0.331,2.382,2.578,67,9.85,43.25
114.13,-0.107,0.331,2.382,2.578,67,9.85,43.36
114.19,-0.056,0.331,2.382,2.578,67,9.85,43.54
114.26,-0.125,0.352,2.379,2.578,67,9.86,43.73
114.32,-0.153,0.331,2.379,2.578,67,9.85,43.87
114.39,0.217,0.601,2.379,2.578,67,9.85,44.04
114.45,-0.08,0.394,2.379,2.578,67,9.85,44.27
114.52,-0.012,0.331,2.379,2.578,67,9.86,44.52
114.58,0.128,0.331,2.379,2.578,66,9.85,44.77
114.65,0.21,0.352,2.379,2.578,66,9.85,44.98
114.71,-0.101,0.352,2.379,2.578,66,9.85,45.16
114.77,-0.154,0.352,2.379,2.578,66,9.85,45.36
114.84,-0.142,0.352,2.379,2.578,66,9.85,45.49
114.9,-0.144,0.331,2.379,2.578,66,9.85,45.55
114.97,-0.144,0.414,2.379,2.578,66,9.85,45.71
115.03,-0.113,0.373,2.379,2.578,66,9.86,45.9
115.1,-0.118,0.331,2.379,2.578,66,9.85,46.15
115.16,-0.171,0.331,2.379,2.578,66,9.85,46.37
115.23,0.251,0.435,2.378,2.578,66,9.85,46.49
115.29,-0.155,0.497,2.378,2.578,66,9.85,46.59
115.35,-0.053,0.331,2.378,2.578,66,9.86,46.74
115.42,0.057,0.352,2.378,2.578,68,9.85,46.92
115.48,0.228,0.352,2.379,2.578,68,9.85,47.07
115.55,0.003,0.331,2.378,2.578,68,9.85,47.16
115.61,-0.149,0.29,2.377,2.578,68,9.85,47.18
115.68,-0.14,0.331,2.377,2.578,68,9.86,47.19
115.74,-0.137,0.331,2.377,2.578,68,9.85,47.07
115.81,-0.135,0.352,2.377,2.578,68,9.86,46.96
115.87,-0.12,0.352,2.377,2.578,68,9.85,46.92
115.94,-0.072,0.331,2.377,2.578,68,9.85,46.91
116.0,-0.145,0.331,2.377,2.578,68,9.85,46.91
116.06,-0.031,0.394,2.377,2.578,68,9.86,46.83
116.13,0.157,0.622,2.377,2.578,68,9.85,46.71
116.19,-0.04,0.311,2.377,2.578,68,9.86,46.63
116.26,0.049,0.311,2.377,2.578,68,9.86,46.57
116.32,0.22,0.352,2.377,2.578,68,9.86,46.52
116.39,0.152,0.331,2.377,2.578,68,9.86,46.44
116.45,-0.096,0.331,2.377,2.578,70,9.86,46.3
116.52,-0.097,0.331,2.377,2.578,70,9.86,46.15
116.58,-0.08,0.352,2.377,2.578,70,9.86,45.89
116.65,-0.077,0.331,2.377,2.578,70,9.86,45.59
116.71,-0.073,0.331,2.377,2.578,70,9.86,45.37
116.77,-0.06,0.311,2.377,2.576,70,9.86,45.19
116.84,-0.005,0.331,2.377,2.578,70,9.86,45.07
116.9,-0.076,0.331,2.377,2.576,70,9.86,44.94
116.97,0.008,0.394,2.377,2.576,70,9.86,44.76
117.03,0.229,0.642,2.377,2.576,70,9.86,44.58
117.1,0.026,0.331,2.377,2.576,70,9.86,44.46
117.16,0.115,0.352,2.377,2.578,70,9.86,44.33
117.23,0.29,0.331,2.377,2.575,70,9.86,44.23
117.29,0.25,0.29,2.377,2.575,70,9.86,44.11
117.35,-0.023,0.331,2.377,2.575,70,9.86,43.98
117.42,-0.036,0.311,2.377,2.576,66,9.86,43.86
117.48,-0.028,0.331,2.377,2.576,66,9.86,43.67
117.55,-0.033,0.311,2.377,2.576,66,9.86,43.46
117.61,-0.037,0.331,2.377,2.578,66,9.86,43.38
117.68,-0.033,0.352,2.377,2.575,66,9.86,43.34
117.74,0.02,0.331,2.377,2.575,66,9.86,43.35
117.81,-0.053,0.352,2.377,2.575,66,9.86,43.37
117.87,-0.016,0.373,2.377,2.576,66,9.86,43.33
117.94,0.267,0.663,2.377,2.575,66,9.86,43.33
118.0,0.031,0.373,2.377,2.575,66,9.86,43.36
118.06,0.114,0.331,2.377,2.575,66,9.86,43.4
118.13,0.282,0.331,2.377,2.575,66,9.86,43.41
118.19,0.275,0.331,2.377,2.575,66,9.86,43.41
118.26,-0.015,0.373,2.377,2.575,66,9.86,43.41
118.32,-0.038,0.352,2.377,2.575,65,9.86,43.41
118.39,-0.027,0.352,2.377,2.575,65,9.86,43.35
118.45,-0.032,0.352,2.375,2.575,65,9.86,43.24
118.52,-0.037,0.331,2.374,2.575,65,9.86,43.22
118.58,-0.031,0.29,2.374,2.575,65,9.86,43.23
118.65,0.022,0.331,2.374,2.575,65,9.86,43.25
118.71,-0.052,0.331,2.374,2.575,65,9.86,43.28
118.77,-0.01,0.352,2.374,2.575,65,9.86,43.27
118.84,0.262,0.622,2.374,2.575,65,9.86,43.28
118.9,0.029,0.373,2.374,2.575,65,9.86,43.33
118.97,0.104,0.29,2.374,2.575,65,9.86,43.36
119.03,0.267,0.331,2.374,2.575,65,9.86,43.38
119.1,0.253,0.311,2.374,2.575,65,9.86,43.4
119.16,-0.043,0.352,2.374,2.575,65,9.86,43.51
119.23,-0.072,0.352,2.374,2.575,66,9.86,43.67
119.29,-0.064,0.331,2.374,2.575,66,9.86,43.77
119.35,-0.068,0.311,2.374,2.575,66,9.86,43.84
119.42,-0.071,0.331,2.373,2.575,66,9.86,44.04
119.48,-0.038,0.331,2.373,2.575,66,9.86,44.28
119.55,-0.052,0.352,2.372,2.575,66,9.86,44.57
119.61,-0.103,0.373,2.372,2.575,66,9.86,44.83
119.68,0.317,0.58,2.372,2.575,66,9.86,44.99
119.74,-0.1,0.435,2.372,2.575,66,9.86,45.19
119.81,0.016,0.331,2.372,2.575,66,9.86,45.43
119.87,0.132,0.331,2.372,2.575,66,9.86,45.71
119.94,0.293,0.331,2.372,2.575,66,9.86,45.98
120.0,0.023,0.331,2.372,2.575,66,9.86,46.18
120.06,-0.102,0.331,2.372,2.575,68,9.86,46.37
120.13,-0.094,0.331,2.372,2.575,68,9.86,46.56
120.19,-0.095,0.311,2.372,2.575,68,9.86,46.61
120.26,-0.09,0.331,2.372,2.575,68,9.88,46.69
120.32,-0.038,0.311,2.372,2.575,68,9.86,46.85
120.39,-0.12,0.352,2.372,2.575,68,9.86,46.99
120.45,-0.079,0.352,2.372,2.575,68,9.86,47.12
120.52,0.222,0.58,2.372,2.574,68,9.86,47.12
120.58,-0.039,0.29,2.372,2.574,68,9.86,47.09
120.65,0.04,0.352,2.372,2.575,68,9.86,47.08
120.71,0.204,0.331,2.372,2.574,74,9.88,47.11
120.77,0.168,0.331,2.372,2.575,74,9.86,47.14
120.84,-0.104,0.311,2.372,2.575,74,9.86,47.12
120.9,-0.118,0.311,2.372,2.574,74,9.86,47.09
120.97,-0.11,0.352,2.37,2.575,74,9.88,46.95
121.03,-0.11,0.331,2.369,2.575,74,9.86,46.76
121.1,-0.087,0.331,2.369,2.575,74,9.86,46.65
121.16,-0.054,0.373,2.369,2.574,74,9.88,46.59
121.23,-0.126,0.331,2.369,2.574,74,9.86,46.56
121.29,0.212,0.497,2.369,2.573,74,9.86,46.5
121.35,-0.034,0.456,2.369,2.574,74,9.86,46.31
121.42,-0.009,0.331,2.369,2.573,74,9.88,46.15
121.48,0.096,0.331,2.369,2.575,74,9.86,46.01
121.55,0.278,0.331,2.369,2.573,74,9.86,45.89
121.61,0.108,0.311,2.369,2.574,74,9.86,45.73
121.68,-0.075,0.311,2.369,2.573,73,9.86,45.54
121.74,-0.064,0.331,2.369,2.574,73,9.86,45.34
121.81,-0.055,0.311,2.369,2.573,73,9.86,45.03
121.87,-0.057,0.331,2.369,2.573,73,9.88,44.74
121.94,-0.055,0.311,2.369,2.573,73,9.88,44.56
122.0,0.004,0.352,2.368,2.573,73,9.86,44.42
122.06,-0.042,0.311,2.367,2.575,73,9.86,44.33
122.13,-0.073,0.394,2.367,2.573,73,9.86,44.22
122.19,0.313,0.601,2.367,2.573,73,9.86,44.05
122.26,-0.007,0.373,2.367,2.573,73,9.88,43.93
122.32,0.072,0.331,2.367,2.573,73,9.86,43.87
122.39,0.207,0.331,2.367,2.573,73,9.86,43.81
122.45,0.336,0.331,2.367,2.573,73,9.88,43.77
122.52,0.035,0.331,2.367,2.573,73,9.88,43.71
122.58,-0.047,0.331,2.367,2.573,68,9.86,43.67
122.65,-0.038,0.352,2.367,2.573,68,9.88,43.58
122.71,-0.044,0.373,2.367,2.573,68,9.88,43.41
122.77,-0.052,0.331,2.367,2.573,68,9.88,43.32
122.84,-0.059,0.352,2.367,2.573,68,9.88,43.32
122.9,-0.047,0.311,2.367,2.573,68,9.88,43.33
122.97,-0.005,0.352,2.367,2.573,68,9.88,43.37
123.03,-0.08,0.331,2.367,2.573,68,9.88,43.35
123.1,0.105,0.456,2.367,2.573,68,9.88,43.34
123.16,0.106,0.663,2.367,2.573,68,9.88,43.38
123.23,0.012,0.373,2.367,2.573,68,9.88,43.42
123.29,0.099,0.331,2.367,2.573,68,9.88,43.44
123.35,0.278,0.373,2.367,2.573,68,9.88,43.45
123.42,0.188,0.331,2.367,2.573,68,9.88,43.45
123.48,-0.069,0.352,2.367,2.573,64,9.88,43.45
123.55,-0.082,0.311,2.367,2.573,64,9.88,43.44
123.61,-0.086,0.331,2.367,2.573,64,9.88,43.37
123.68,-0.1,0.331,2.367,2.573,64,9.88,43.33
123.74,-0.113,0.331,2.367,2.573,64,9.88,43.44
123.81,-0.107,0.311,2.367,2.573,64,9.88,43.57
123.87,-0.082,0.331,2.364,2.573,64,9.88,43.76
123.94,-0.161,0.311,2.364,2.573,64,9.88,43.94
124.0,0.125,0.518,2.364,2.571,64,9.88,44.09
124.06,-0.075,0.497,2.364,2.573,64,9.88,44.28
124.13,-0.079,0.373,2.364,2.573,64,9.88,44.5
124.19,0.009,0.352,2.364,2.573,66,9.88,44.73
124.26,0.184,0.311,2.364,2.573,66,9.88,44.98
124.32,0.04,0.311,2.364,2.573,66,9.88,45.19
124.39,-0.181,0.352,2.364,2.573,66,9.88,45.37
124.45,-0.182,0.331,2.364,2.573,66,9.88,45.55
124.52,-0.179,0.352,2.364,2.571,66,9.88,45.61
124.58,-0.18,0.352,2.364,2.573,66,9.88,45.68
124.65,-0.158,0.352,2.364,2.57,66,9.88,45.87
124.71,-0.149,0.311,2.364,2.571,66,9.88,46.09
124.77,-0.216,0.331,2.364,2.571,66,9.88,46.33
124.84,0.203,0.497,2.364,2.571,66,9.88,46.51
124.9,-0.208,0.477,2.364,2.57,66,9.88,46.6
124.97,-0.104,0.373,2.362,2.573,66,9.88,46.75
125.03,0.004,0.352,2.362,2.573,72,9.88,46.95
125.1,0.172,0.311,2.363,2.57,72,9.88,47.14
125.16,-0.046,0.352,2.362,2.573,72,9.88,47.27
125.23,-0.198,0.331,2.362,2.571,72,9.88,47.34
125.29,-0.19,0.373,2.362,2.571,72,9.88,47.39
125.35,-0.189,0.331,2.362,2.57,72,9.88,47.29
125.42,-0.176,0.331,2.362,2.57,72,9.88,47.2
125.48,-0.12,0.352,2.362,2.57,72,9.88,47.16
125.55,-0.197,0.331,2.362,2.571,72,9.88,47.13
125.61,-0.111,0.352,2.362,2.57,72,9.88,47.13
125.68,0.129,0.559,2.362,2.57,72,9.88,47.03
125.74,-0.1,0.331,2.362,2.57,72,9.88,46.89
125.81,-0.01,0.331,2.362,2.57,72,9.88,46.8
125.87,0.158,0.311,2.362,2.57,75,9.88,46.74
125.94,0.107,0.331,2.362,2.57,75,9.88,46.67
126.0,-0.139,0.352,2.362,2.57,75,9.88,46.52
126.06,-0.138,0.331,2.362,2.57,75,9.88,46.36
126.13,-0.121,0.331,2.36,2.57,75,9.88,46.07
126.19,-0.118,0.311,2.36,2.57,75,9.88,45.74
126.26,-0.106,0.331,2.359,2.57,75,9.88,45.46
126.32,-0.039,0.373,2.359,2.57,75,9.88,45.22
126.39,-0.113,0.331,2.359,2.57,75,9.88,45.04
126.45,-0.079,0.435,2.359,2.57,75,9.88,44.84
126.52,0.237,0.601,2.359,2.57,75,9.88,44.65
126.58,-0.013,0.352,2.359,2.57,75,9.88,44.47
126.65,0.072,0.311,2.359,2.57,75,9.88,44.34
126.71,0.243,0.331,2.359,2.57,75,9.88,44.2
126.77,0.247,0.311,2.359,2.57,75,9.88,44.08
126.84,-0.034,0.331,2.359,2.57,75,9.88,43.96
126.9,-0.054,0.331,2.359,2.57,70,9.89,43.85
126.97,-0.045,0.352,2.359,2.57,70,9.9,43.66
127.03,-0.051,0.331,2.359,2.57,70,9.9,43.44
127.1,-0.052,0.331,2.359,2.57,70,9.9,43.36
127.16,0.0,0.373,2.359,2.57,70,9.9,43.31
127.23,-0.039,0.311,2.359,2.57,70,9.89,43.33
127.29,-0.074,0.331,2.359,2.57,70,9.89,43.35
127.35,0.318,0.601,2.359,2.57,70,9.88,43.32
127.42,-0.021,0.352,2.359,2.57,70,9.88,43.31
127.48,0.073,0.352,2.359,2.57,70,9.88,43.34
127.55,0.205,0.331,2.358,2.57,70,9.88,43.38
127.61,0.344,0.352,2.357,2.57,70,9.88,43.39
127.68,0.053,0.352,2.357,2.57,70,9.88,43.39
127.74,-0.036,0.352,2.357,2.57,69,9.88,43.39
127.81,-0.025,0.373,2.357,2.57,69,9.88,43.36
127.87,-0.028,0.352,2.357,2.57,69,9.88,43.25
127.94,-0.033,0.352,2.357,2.57,69,9.88,43.18
128.0,-0.038,0.311,2.357,2.57,69,9.88,43.18
128.06,0.017,0.352,2.357,2.57,69,9.88,43.21
128.13,-0.037,0.331,2.357,2.569,69,9.88,43.26
128.19,-0.063,0.373,2.357,2.568,69,9.88,43.25
128.26,0.301,0.684,2.357,2.568,69,9.88,43.25
128.32,0.009,0.352,2.357,2.569,69,9.88,43.27
128.39,0.071,0.311,2.357,2.568,69,9.88,43.31
128.45,0.201,0.352,2.357,2.568,69,9.88,43.33
128.52,0.295,0.331,2.357,2.57,69,9.88,43.34
128.58,-0.016,0.331,2.355,2.57,69,9.88,43.42
128.65,-0.085,0.331,2.357,2.568,67,9.88,43.63
128.71,-0.078,0.352,2.355,2.569,67,9.88,43.82
128.77,-0.082,0.311,2.354,2.569,67,9.88,43.97
128.84,-0.079,0.311,2.354,2.569,67,9.88,44.2
128.9,-0.028,0.311,2.354,2.569,67,9.88,44.49
128.97,-0.112,0.352,2.354,2.568,67,9.88,44.81
129.03,-0.098,0.352,2.354,2.568,67,9.88,45.12
129.1,0.225,0.58,2.354,2.568,67,9.88,45.32
129.16,-0.042,0.352,2.354,2.568,67,9.88,45.5
129.23,0.03,0.311,2.354,2.568,67,9.88,45.74
129.29,0.187,0.331,2.354,2.568,67,9.88,46.02
129.35,0.185,0.331,2.354,2.568,67,9.88,46.31
129.42,-0.107,0.331,2.354,2.568,72,9.88,46.51
129.48,-0.128,0.331,2.354,2.568,72,9.88,46.71
129.55,-0.124,0.352,2.354,2.568,72,9.88,46.83
129.61,-0.126,0.331,2.354,2.568,72,9.88,46.91
129.68,-0.081,0.311,2.354,2.568,72,9.88,47.08
129.74,-0.116,0.311,2.354,2.568,72,9.88,47.28
129.81,0.275,0.601,2.354,2.568,72,9.88,47.5
129.87,0.246,0.58,2.354,2.568,72,9.88,47.63
129.94,-0.132,0.394,2.354,2.568,72,9.88,47.6
130.0,-0.031,0.352,2.354,2.568,75,9.88,47.58
130.06,0.095,0.331,2.354,2.568,75,9.88,47.61
130.13,0.225,0.311,2.353,2.568,75,9.88,47.66
130.19,-0.064,0.352,2.353,2.568,75,9.88,47.66
130.26,-0.147,0.311,2.352,2.568,75,9.88,47.64
130.32,-0.139,0.311,2.352,2.568,75,9.88,47.57
130.39,-0.145,0.311,2.352,2.568,75,9.88,47.4
130.45,-0.13,0.331,2.352,2.568,75,9.88,47.26
130.52,-0.082,0.331,2.352,2.568,75,9.88,47.18
130.58,-0.159,0.352,2.352,2.568,75,9.88,47.15
130.65,0.035,0.456,2.352,2.568,75,9.88,47.11
130.71,0.074,0.559,2.352,2.568,75,9.88,46.96
130.77,-0.048,0.352,2.352,2.568,75,9.88,46.77
130.84,0.05,0.331,2.352,2.568,75,9.88,46.63
130.9,0.227,0.331,2.352,2.567,75,9.88,46.52
130.97,0.123,0.331,2.352,2.568,75,9.88,46.36
131.03,-0.092,0.29,2.352,2.568,75,9.88,46.16
131.1,-0.082,0.352,2.349,2.568,75,9.88,45.96
131.16,-0.072,0.331,2.35,2.568,75,9.88,45.65
131.23,-0.071,0.311,2.35,2.567,75,9.88,45.33
131.29,-0.068,0.331,2.349,2.566,75,9.88,45.09
131.35,-0.013,0.352,2.349,2.567,75,9.88,44.88
131.42,-0.053,0.331,2.349,2.566,75,9.88,44.74
131.48,-0.084,0.352,2.349,2.566,75,9.89,44.6
131.55,0.304,0.642,2.349,2.567,75,9.89,44.4
131.61,-0.011,0.394,2.349,2.566,75,9.89,44.24
131.68,0.068,0.352,2.349,2.567,75,9.88,44.12
131.74,0.209,0.352,2.349,2.567,75,9.89,44.0
131.81,0.333,0.311,2.349,2.568,75,9.89,43.9
131.87,0.034,0.352,2.349,2.566,75,9.89,43.8
131.94,-0.041,0.311,2.349,2.566,68,9.89,43.72
132.0,-0.031,0.311,2.349,2.566,68,9.89,43.61
132.06,-0.034,0.331,2.349,2.566,68,9.89,43.4
132.13,-0.045,0.331,2.349,2.566,68,9.89,43.28
132.19,-0.05,0.311,2.349,2.566,68,9.89,43.27
132.26,-0.003,0.373,2.348,2.566,68,9.89,43.28
132.32,-0.085,0.331,2.347,2.566,68,9.89,43.3
132.39,-0.086,0.373,2.347,2.566,68,9.89,43.29
132.45,0.242,0.642,2.348,2.566,68,9.89,43.39
132.52,-0.031,0.311,2.347,2.566,68,9.89,43.59
132.58,0.038,0.352,2.347,2.566,68,9.89,43.83
132.65,0.19,0.373,2.347,2.566,68,9.89,44.1
132.71,0.207,0.331,2.347,2.566,68,9.89,44.34
132.77,-0.1,0.352,2.347,2.566,68,9.89,44.52
132.84,-0.132,0.352,2.347,2.566,67,9.89,44.71
132.9,-0.126,0.331,2.347,2.566,67,9.89,44.83
132.97,-0.13,0.352,2.347,2.566,67,9.89,44.93
133.03,-0.121,0.331,2.347,2.566,67,9.89,45.14
133.1,-0.073,0.352,2.347,2.566,67,9.89,45.37
133.16,-0.154,0.352,2.347,2.566,67,9.89,45.66
133.23,-0.118,0.352,2.347,2.566,67,9.89,45.88
133.29,0.19,0.58,2.347,2.566,67,9.89,46.0
133.35,-0.072,0.352,2.345,2.566,67,9.89,46.15
133.42,0.006,0.331,2.345,2.566,67,9.89,46.37
133.48,0.169,0.331,2.344,2.566,71,9.89,46.64
133.55,0.15,0.311,2.345,2.566,71,9.89,46.88
133.61,-0.131,0.331,2.345,2.566,71,9.89,47.07
133.68,-0.145,0.331,2.347,2.566,71,9.89,47.24
133.74,-0.14,0.352,2.344,2.566,71,9.89,47.28
133.81,-0.136,0.352,2.345,2.566,71,9.89,47.24
133.87,-0.081,0.352,2.345,2.566,71,9.88,47.25
133.94,-0.13,0.352,2.344,2.566,71,9.88,47.26
134.0,-0.165,0.331,2.345,2.566,71,9.88,47.3
134.06,0.26,0.559,2.345,2.566,71,9.88,47.23
134.13,-0.111,0.352,2.344,2.566,71,9.88,47.22
134.19,-0.017,0.311,2.344,2.566,71,9.88,47.17
134.26,0.119,0.352,2.344,2.564,75,9.88,47.19
134.32,0.229,0.331,2.344,2.566,75,9.88,47.21
134.39,-0.067,0.352,2.344,2.566,75,9.88,47.2
134.45,-0.13,0.331,2.344,2.566,75,9.88,47.2
134.52,-0.116,0.352,2.344,2.563,75,9.88,47.11
134.58,-0.114,0.29,2.344,2.563,75,9.88,46.93
134.65,-0.1,0.394,2.342,2.564,75,9.89,46.79
134.71,-0.037,0.331,2.343,2.563,75,9.89,46.72
134.77,-0.109,0.331,2.343,2.563,75,9.88,46.69
134.84,-0.082,0.352,2.343,2.563,75,9.89,46.64
134.9,0.261,0.622,2.342,2.563,75,9.89,46.49
134.97,-0.014,0.331,2.342,2.563,75,9.88,46.33
135.03,0.072,0.311,2.342,2.563,75,9.88,46.2
135.1,0.238,0.29,2.342,2.563,75,9.89,46.09
135.16,0.234,0.331,2.342,2.563,75,9.89,45.95
135.23,-0.039,0.331,2.342,2.563,75,9.88,45.78
135.29,-0.051,0.352,2.342,2.563,72,9.89,45.61
135.35,-0.035,0.352,2.342,2.563,72,9.88,45.34
135.42,-0.036,0.311,2.342,2.563,72,9.89,45.01
135.48,-0.034,0.331,2.342,2.563,72,9.89,44.77
135.55,0.02,0.352,2.342,2.563,72,9.89,44.58
135.61,-0.008,0.331,2.342,2.563,72,9.89,44.46
135.68,-0.048,0.352,2.342,2.563,72,9.89,44.35
135.74,0.349,0.684,2.34,2.563,72,9.89,44.17
135.81,0.001,0.414,2.339,2.563,72,9.89,44.04
135.87,0.098,0.331,2.339,2.563,72,9.89,43.94
135.94,0.229,0.331,2.34,2.563,72,9.89,43.88
136.0,0.365,0.331,2.34,2.563,72,9.89,43.81
136.06,0.077,0.331,2.339,2.563,72,9.89,43.74
136.13,-0.013,0.352,2.339,2.563,69,9.88,43.69
136.19,0.0,0.331,2.339,2.563,69,9.89,43.6
136.26,-0.001,0.311,2.339,2.563,69,9.89,43.42
136.32,-0.005,0.331,2.339,2.563,69,9.89,43.33
136.39,0.013,0.352,2.339,2.563,69,9.9,43.3
136.45,0.008,0.352,2.339,2.563,69,9.9,43.31
136.52,-0.034,0.373,2.339,2.563,69,9.9,43.35
136.58,0.346,0.518,2.339,2.562,69,9.91,43.33
136.65,-0.017,0.539,2.339,2.561,69,9.93,43.33
136.71,0.076,0.352,2.339,2.562,69,9.93,43.4
136.77,0.177,0.373,2.339,2.562,69,9.94,43.4
136.84,0.349,0.352,2.339,2.562,69,9.93,43.42
136.9,0.156,0.373,2.339,2.563,69,9.94,43.43
136.97,-0.025,0.352,2.339,2.562,70,9.93,43.43
137.03,-0.022,0.331,2.339,2.563,70,9.93,43.42
137.1,-0.022,0.352,2.339,2.563,70,9.94,43.33
137.16,-0.029,0.311,2.339,2.561,70,9.94,43.25
137.23,-0.032,0.331,2.339,2.561,70,9.94,43.26
137.29,0.014,0.373,2.339,2.561,70,9.94,43.28
137.35,-0.021,0.331,2.339,2.561,70,9.94,43.33
137.42,-0.059,0.331,2.337,2.561,70,9.94,43.34
137.48,0.318,0.622,2.338,2.561,70,9.94,43.33
137.55,-0.026,0.394,2.337,2.561,70,9.94,43.35
137.61,0.073,0.352,2.339,2.562,70,9.94,43.39
137.68,0.199,0.373,2.337,2.561,70,9.94,43.42
137.74,0.338,0.352,2.337,2.561,70,9.94,43.43
137.81,0.057,0.352,2.337,2.561,70,9.95,43.43
137.87,-0.04,0.311,2.337,2.561,67,9.95,43.43
137.94,-0.035,0.352,2.337,2.561,67,9.94,43.4
138.0,-0.042,0.29,2.337,2.561,67,9.95,43.29
138.06,-0.054,0.352,2.337,2.561,67,9.95,43.23
138.13,-0.035,0.331,2.337,2.561,67,9.95,43.26
138.19,-0.034,0.311,2.337,2.561,67,9.95,43.38
138.26,-0.104,0.352,2.337,2.561,67,9.95,43.56
138.32,0.288,0.497,2.337,2.561,67,9.95,43.72
138.39,-0.113,0.497,2.337,2.561,67,9.95,43.89
138.45,-0.003,0.373,2.337,2.561,67,9.95,44.14
138.52,0.095,0.331,2.337,2.561,70,9.94,44.39
138.58,0.261,0.331,2.337,2.561,70,9.95,44.67
138.65,0.053,0.352,2.337,2.561,70,9.94,44.9
138.71,-0.113,0.373,2.337,2.561,70,9.94,45.12
138.77,-0.106,0.311,2.337,2.561,70,9.94,45.3
138.84,-0.108,0.352,2.337,2.561,70,9.94,45.37
138.9,-0.109,0.352,2.337,2.561,70,9.94,45.49
138.97,-0.051,0.331,2.337,2.561,70,9.95,45.67
139.03,-0.119,0.352,2.337,2.559,70,9.95,45.88
139.1,-0.152,0.394,2.337,2.558,70,9.95,46.11
139.16,0.242,0.559,2.337,2.561,70,9.95,46.25
139.23,-0.072,0.352,2.337,2.558,70,9.95,46.33
139.29,-0.002,0.331,2.335,2.561,70,9.94,46.47
139.35,0.137,0.352,2.337,2.561,74,9.94,46.68
139.42,0.201,0.331,2.337,2.559,74,9.94,46.9
139.48,-0.109,0.331,2.337,2.558,74,9.94,47.05
139.55,-0.135,0.311,2.337,2.559,74,9.94,47.17
139.61,-0.133,0.394,2.337,2.561,74,9.94,47.2
139.68,-0.136,0.311,2.337,2.559,74,9.94,47.14
139.74,-0.078,0.331,2.337,2.559,74,9.94,47.16
139.81,-0.134,0.352,2.337,2.558,74,9.94,47.35
139.87,-0.168,0.331,2.337,2.558,74,9.94,47.37
139.94,0.247,0.622,2.335,2.558,74,9.93,47.44
140.0,-0.109,0.352,2.337,2.558,74,9.93,47.4
140.06,-0.026,0.352,2.337,2.558,74,9.91,47.41
140.13,0.111,0.352,2.337,2.558,76,9.91,47.49
140.19,0.207,0.331,2.335,2.558,76,9.91,47.56
140.26,-0.093,0.311,2.337,2.558,76,9.9,47.56
140.32,-0.148,0.352,2.335,2.558,76,9.9,47.57
140.39,-0.14,0.331,2.334,2.558,76,9.9,47.51
140.45,-0.142,0.373,2.334,2.558,76,9.9,47.38
140.52,-0.113,0.331,2.334,2.558,76,9.9,47.32
140.58,-0.098,0.373,2.334,2.558,76,9.9,47.31
140.65,-0.162,0.311,2.334,2.558,76,9.9,47.32
140.71,0.268,0.497,2.334,2.558,76,9.9,47.32
140.77,-0.134,0.497,2.334,2.558,76,9.9,47.25
140.84,-0.035,0.331,2.334,2.558,76,9.9,47.2
140.9,0.075,0.352,2.334,2.558,75,9.9,47.15
140.97,0.246,0.352,2.334,2.558,75,9.9,47.11
141.03,0.038,0.311,2.334,2.558,75,9.9,47.02
141.1,-0.113,0.29,2.334,2.558,75,9.9,46.88
141.16,-0.097,0.311,2.334,2.558,75,9.9,46.69
141.23,-0.091,0.331,2.334,2.558,75,9.9,46.38
141.29,-0.091,0.311,2.334,2.558,75,9.9,46.06
141.35,-0.08,0.352,2.334,2.558,75,9.9,45.83
141.42,-0.023,0.331,2.333,2.557,75,9.91,45.64
141.48,-0.098,0.331,2.333,2.556,75,9.9,45.52
141.55,-0.009,0.394,2.332,2.558,75,9.9,45.33
141.61,0.204,0.58,2.332,2.557,75,9.9,45.13
141.68,-0.006,0.311,2.332,2.558,75,9.9,44.97
141.74,0.079,0.352,2.332,2.556,75,9.9,44.84
141.81,0.254,0.373,2.332,2.556,75,9.9,44.71
141.87,0.206,0.352,2.332,2.556,75,9.9,44.58
141.94,-0.061,0.373,2.332,2.556,70,9.9,44.42
142.0,-0.07,0.373,2.332,2.556,70,9.9,44.27
142.06,-0.066,0.331,2.332,2.556,70,9.91,43.99
142.13,-0.071,0.331,2.332,2.556,70,9.9,43.74
142.19,-0.077,0.331,2.332,2.556,70,9.91,43.6
142.26,-0.049,0.352,2.332,2.556,70,9.91,43.52
142.32,-0.05,0.352,2.332,2.556,70,9.91,43.51
142.39,-0.108,0.331,2.332,2.556,70,9.91,43.49
142.45,0.309,0.456,2.332,2.556,70,9.9,43.44
142.52,-0.111,0.559,2.332,2.556,70,9.91,43.42
142.58,0.01,0.352,2.33,2.556,70,9.9,43.44
142.65,0.116,0.352,2.329,2.556,70,9.91,43.45
142.71,0.294,0.311,2.329,2.556,70,9.9,43.48
142.77,0.079,0.352,2.329,2.556,70,9.9,43.48
142.84,-0.086,0.352,2.329,2.556,68,9.9,43.48
142.9,-0.079,0.352,2.329,2.556,68,9.9,43.46
142.97,-0.078,0.331,2.329,2.556,68,9.9,43.34
143.03,-0.085,0.331,2.329,2.556,68,9.9,43.24
143.1,-0.094,0.352,2.329,2.556,68,9.91,43.23
143.16,-0.088,0.373,2.329,2.556,68,9.91,43.25
143.23,-0.049,0.331,2.329,2.554,68,9.91,43.28
143.29,-0.13,0.311,2.329,2.554,68,9.91,43.28
143.35,0.061,0.414,2.329,2.554,68,9.91,43.31
143.42,0.04,0.559,2.329,2.556,68,9.91,43.44
143.48,-0.053,0.352,2.329,2.556,68,9.91,43.62
143.55,0.025,0.331,2.329,2.556,65,9.91,43.82
143.61,0.194,0.331,2.327,2.554,65,9.9,44.03
143.68,0.094,0.352,2.327,2.554,65,9.9,44.25
143.74,-0.157,0.331,2.327,2.553,65,9.9,44.47
143.81,-0.164,0.352,2.327,2.553,65,9.9,44.69
143.87,-0.158,0.331,2.327,2.553,65,9.9,44.77
143.94,-0.163,0.331,2.327,2.553,65,9.9,44.89
144.0,-0.158,0.331,2.327,2.554,65,9.9,45.11
144.06,-0.11,0.352,2.327,2.554,65,9.9,45.36
144.13,-0.187,0.331,2.327,2.553,65,9.9,45.65
144.19,-0.142,0.394,2.327,2.553,65,9.9,45.84
144.26,0.144,0.559,2.327,2.553,65,9.9,45.95
144.32,-0.107,0.331,2.327,2.553,65,9.9,46.11
144.39,-0.03,0.352,2.327,2.553,65,9.9,46.34
144.45,0.134,0.352,2.327,2.553,70,9.9,46.6
144.52,0.107,0.331,2.327,2.553,70,9.91,46.84
144.58,-0.172,0.331,2.327,2.553,70,9.9,47.01
144.65,-0.187,0.352,2.327,2.553,70,9.9,47.18
144.71,-0.18,0.331,2.327,2.553,70,9.91,47.24
144.77,-0.182,0.352,2.327,2.553,70,9.91,47.24
144.84,-0.123,0.311,2.327,2.553,70,9.9,47.32
144.9,-0.186,0.311,2.327,2.553,70,9.9,47.41
144.97,-0.212,0.352,2.325,2.553,70,9.9,47.55
145.03,0.202,0.559,2.325,2.553,70,9.9,47.59
145.1,-0.126,0.414,2.327,2.553,70,9.9,47.53
145.16,-0.049,0.373,2.324,2.553,70,9.9,47.53
145.23,0.097,0.352,2.324,2.553,76,9.91,47.59
145.29,0.165,0.352,2.324,2.553,76,9.9,47.66
145.35,-0.141,0.331,2.324,2.553,76,9.9,47.68
145.42,-0.179,0.352,2.324,2.553,76,9.9,47.67
145.48,-0.17,0.311,2.324,2.553,76,9.91,47.6
145.55,-0.169,0.331,2.324,2.553,76,9.91,47.43
145.61,-0.111,0.352,2.324,2.553,76,9.91,47.33
145.68,-0.149,0.311,2.324,2.552,76,9.91,47.26
145.74,-0.181,0.352,2.324,2.552,76,9.91,47.25
145.81,-0.091,0.331,2.324,2.551,76,9.91,47.19
145.87,-0.076,0.331,2.324,2.551,76,9.91,47.05
145.94,-0.021,0.373,2.324,2.551,76,9.91,46.92
146.0,0.116,0.331,2.324,2.551,76,9.91,46.83
146.06,0.23,0.331,2.324,2.551,76,9.91,46.74
146.13,-0.068,0.331,2.323,2.552,76,9.91,46.45
146.19,-0.129,0.311,2.324,2.551,76,9.91,46.43
146.26,-0.107,0.373,2.324,2.551,76,9.91,46.23
146.32,-0.102,0.352,2.324,2.551,76,9.91,45.92
146.39,-0.097,0.331,2.324,2.551,76,9.91,45.65
146.45,-0.026,0.331,2.324,2.551,76,9.91,45.45
146.52,-0.091,0.311,2.324,2.551,76,9.91,45.31
146.58,-0.105,0.414,2.324,2.551,76,9.91,45.22
146.65,0.287,0.642,2.324,2.551,76,9.91,45.04
146.71,-0.009,0.352,2.322,2.551,76,9.91,44.84
146.77,0.064,0.331,2.322,2.551,76,9.91,44.73
146.84,0.221,0.352,2.322,2.551,76,9.91,44.63
146.9,0.277,0.373,2.322,2.551,76,9.91,44.54
146.97,-0.021,0.311,2.322,2.551,76,9.91,44.39
147.03,-0.055,0.331,2.322,2.551,76,9.91,44.24
147.1,-0.043,0.331,2.322,2.551,76,9.91,44.02
147.16,-0.048,0.331,2.322,2.551,76,9.91,43.74
147.23,-0.05,0.352,2.322,2.551,76,9.91,43.59
147.29,0.008,0.352,2.322,2.551,76,9.91,43.52
147.35,-0.045,0.352,2.322,2.551,76,9.91,43.48
147.42,-0.074,0.311,2.322,2.551,76,9.91,43.48
147.48,0.299,0.684,2.322,2.551,76,9.91,43.43
147.55,0.003,0.373,2.322,2.551,76,9.91,43.42
147.61,0.077,0.352,2.322,2.549,76,9.91,43.44
147.68,0.217,0.311,2.322,2.549,76,9.91,43.46
147.74,0.327,0.311,2.322,2.551,76,9.91,43.49
147.81,0.018,0.331,2.322,2.549,76,9.91,43.48
147.87,-0.055,0.311,2.322,2.551,70,9.91,43.49
147.94,-0.054,0.331,2.322,2.548,70,9.91,43.43
148.0,-0.068,0.352,2.322,2.548,70,9.91,43.31
148.06,-0.074,0.311,2.322,2.548,70,9.91,43.26
148.13,-0.02,0.331,2.322,2.548,70,9.91,43.38
148.19,-0.089,0.373,2.322,2.548,70,9.91,43.65
148.26,-0.123,0.311,2.322,2.548,70,9.91,43.94
148.32,0.258,0.622,2.322,2.548,70,9.91,44.19
148.39,-0.048,0.394,2.322,2.548,70,9.91,44.44
148.45,0.019,0.331,2.322,2.548,70,9.91,44.72
148.52,0.162,0.352,2.319,2.548,70,9.91,45.01
148.58,0.237,0.331,2.32,2.548,70,9.91,45.3
148.65,-0.071,0.29,2.319,2.548,70,9.91,45.52
148.71,-0.12,0.331,2.319,2.548,72,9.91,45.77
148.77,-0.113,0.331,2.319,2.548,72,9.91,45.93
148.84,-0.117,0.352,2.319,2.548,72,9.91,46.04
148.9,-0.084,0.331,2.32,2.548,72,9.91,46.24
148.97,-0.101,0.331,2.319,2.548,72,9.91,46.47
149.03,-0.159,0.331,2.319,2.548,72,9.91,46.76
149.1,0.282,0.539,2.319,2.548,72,9.91,47.01
149.16,-0.161,0.414,2.319,2.548,72,9.91,47.12
149.23,-0.044,0.373,2.319,2.548,72,9.91,47.23
149.29,0.071,0.373,2.319,2.548,75,9.91,47.42
149.35,0.224,0.352,2.319,2.548,75,9.91,47.56
149.42,-0.033,0.352,2.319,2.548,75,9.91,47.61
149.48,-0.149,0.311,2.319,2.548,75,9.91,47.6
149.55,-0.138,0.331,2.319,2.548,75,9.91,47.56
149.61,-0.141,0.331,2.319,2.548,75,9.91,47.37
149.68,-0.115,0.331,2.318,2.548,75,9.91,47.22
149.74,-0.095,0.352,2.317,2.548,75,9.91,47.12
149.81,-0.161,0.331,2.318,2.546,75,9.91,47.08
149.87,-0.149,0.373,2.318,2.548,75,9.91,47.04
149.94,-0.128,0.352,2.317,2.548,75,9.91,46.89
150.0,-0.037,0.352,2.317,2.547,75,9.91,46.72
150.06,0.071,0.352,2.317,2.547,75,9.91,46.58
150.13,0.244,0.331,2.317,2.546,75,9.91,46.5
150.19,0.038,0.352,2.315,2.546,75,9.91,46.21
150.26,-0.114,0.352,2.315,2.546,75,9.91,46.2
150.32,-0.097,0.331,2.317,2.547,75,9.91,46.01
150.39,-0.086,0.331,2.317,2.546,75,9.91,45.68
150.45,-0.084,0.331,2.315,2.546,75,9.91,45.39
150.52,-0.046,0.352,2.317,2.546,75,9.91,45.17
150.58,-0.036,0.373,2.315,2.546,75,9.91,44.99
150.65,-0.091,0.331,2.314,2.546,75,9.91,44.87
150.71,0.345,0.539,2.314,2.546,75,9.91,44.7
150.77,-0.089,0.601,2.314,2.546,75,9.91,44.51
150.84,0.04,0.373,2.314,2.546,75,9.93,44.36
150.9,0.159,0.352,2.314,2.546,75,9.91,44.23
150.97,0.333,0.331,2.314,2.546,75,9.91,44.11
151.03,0.101,0.352,2.314,2.546,75,9.91,43.98
151.1,-0.039,0.352,2.314,2.546,75,9.91,43.87
151.16,-0.028,0.331,2.314,2.546,75,9.91,43.76
151.23,-0.027,0.352,2.314,2.546,75,9.91,43.56
151.29,-0.035,0.331,2.314,2.546,75,9.91,43.42
151.35,-0.026,0.352,2.314,2.546,75,9.91,43.39
151.42,0.014,0.352,2.314,2.546,75,9.91,43.38
151.48,-0.062,0.331,2.314,2.546,75,9.93,43.46
151.55,0.11,0.456,2.314,2.546,75,9.91,43.54
151.61,0.159,0.622,2.314,2.546,75,9.91,43.63
151.68,0.042,0.331,2.314,2.546,75,9.91,43.74
151.74,0.134,0.29,2.314,2.546,75,9.91,43.79
151.81,0.307,0.331,2.314,2.546,75,9.91,43.83
151.87,0.216,0.311,2.314,2.546,75,9.91,43.79
151.94,-0.02,0.331,2.314,2.546,75,9.91,43.77
152.0,-0.022,0.352,2.314,2.546,70,9.91,43.73
152.06,-0.02,0.331,2.314,2.546,70,9.93,43.61
152.13,-0.027,0.331,2.314,2.544,70,9.91,43.46
152.19,-0.034,0.331,2.312,2.546,70,9.91,43.42
152.26,-0.012,0.311,2.312,2.546,70,9.91,43.41
152.32,0.004,0.373,2.312,2.546,70,9.91,43.42
152.39,-0.059,0.373,2.312,2.546,70,9.91,43.43
152.45,0.314,0.497,2.312,2.546,70,9.93,43.39
152.52,0.028,0.477,2.312,2.546,70,9.91,43.41
152.58,0.044,0.331,2.312,2.543,70,9.91,43.44
152.65,0.122,0.331,2.312,2.543,70,9.91,43.47
152.71,0.29,0.352,2.312,2.543,70,9.91,43.57
152.77,0.098,0.331,2.312,2.543,70,9.91,43.77
152.84,-0.095,0.331,2.312,2.543,67,9.91,44.28
152.9,-0.093,0.311,2.312,2.543,67,9.91,44.3
152.97,-0.093,0.311,2.312,2.543,67,9.93,44.42
153.03,-0.099,0.331,2.312,2.543,67,9.91,44.6
153.1,-0.091,0.311,2.31,2.544,67,9.91,44.87
153.16,-0.057,0.352,2.312,2.543,67,9.91,45.17
153.23,-0.138,0.352,2.312,2.543,67,9.91,45.49
153.29,0.058,0.435,2.312,2.543,67,9.91,45.69
153.35,0.057,0.518,2.31,2.543,67,9.91,45.87
153.42,-0.051,0.352,2.31,2.543,67,9.91,46.09
153.48,0.035,0.352,2.31,2.543,70,9.91,46.38
153.55,0.204,0.331,2.31,2.543,70,9.91,46.68
153.61,0.092,0.373,2.31,2.543,70,9.91,46.94
153.68,-0.141,0.352,2.309,2.543,70,9.91,47.16
153.74,-0.149,0.331,2.31,2.543,70,9.91,47.4
153.81,-0.148,0.331,2.31,2.543,70,9.91,47.5
153.87,-0.149,0.331,2.309,2.543,70,9.91,47.57
153.94,-0.09,0.352,2.309,2.543,70,9.93,47.68
154.0,-0.158,0.331,2.309,2.543,70,9.93,47.73
154.06,-0.182,0.352,2.309,2.543,70,9.91,47.75
154.13,0.229,0.559,2.309,2.543,70,9.93,47.67
154.19,-0.092,0.394,2.309,2.543,70,9.93,47.55
154.26,-0.02,0.352,2.309,2.543,70,9.91,47.48
154.32,0.124,0.331,2.309,2.543,75,9.91,47.48
154.39,0.173,0.352,2.309,2.543,75,9.93,47.48
154.45,-0.119,0.352,2.309,2.542,75,9.91,47.44
154.52,-0.15,0.331,2.309,2.542,75,9.93,47.36
154.58,-0.139,0.311,2.309,2.541,75,9.91,47.21
154.65,-0.137,0.352,2.309,2.542,75,9.91,46.96
154.71,-0.111,0.352,2.309,2.542,75,9.91,46.75
154.77,-0.067,0.352,2.308,2.541,75,9.91,46.58
154.84,-0.135,0.331,2.309,2.541,75,9.93,46.45
154.9,0.225,0.539,2.309,2.541,75,9.93,46.3
154.97,-0.043,0.497,2.307,2.541,75,9.91,46.04
155.03,0.003,0.311,2.307,2.541,75,9.91,45.82
155.1,0.117,0.352,2.307,2.541,75,9.91,45.65
155.16,0.297,0.352,2.307,2.541,75,9.93,45.49
155.23,0.126,0.352,2.307,2.541,75,9.91,45.3
155.29,-0.05,0.352,2.307,2.541,74,9.93,45.06
155.35,-0.035,0.352,2.307,2.541,74,9.93,44.81
155.42,-0.025,0.352,2.307,2.541,74,9.93,44.46
155.48,-0.026,0.352,2.307,2.541,74,9.93,44.15
155.55,-0.021,0.331,2.307,2.541,74,9.93,43.94
155.61,0.04,0.352,2.307,2.541,74,9.93,43.79
155.68,-0.034,0.331,2.307,2.541,74,9.93,43.73
155.74,0.004,0.352,2.307,2.541,74,9.93,43.66
155.81,0.287,0.642,2.307,2.541,74,9.93,43.58
155.87,0.054,0.331,2.307,2.541,74,9.93,43.56
155.94,0.132,0.331,2.307,2.541,74,9.93,43.56
156.0,0.288,0.331,2.307,2.541,74,9.93,43.57
156.06,0.269,0.352,2.307,2.541,74,9.93,43.57
156.13,-0.013,0.331,2.307,2.541,74,9.91,43.56
156.19,-0.032,0.311,2.307,2.541,69,9.91,43.57
156.26,-0.022,0.331,2.307,2.541,69,9.91,43.65
156.32,-0.024,0.352,2.307,2.541,69,9.91,43.79
156.39,-0.006,0.373,2.307,2.541,69,9.93,44.03
156.45,0.025,0.352,2.307,2.539,69,9.93,44.3
156.52,-0.053,0.352,2.305,2.539,69,9.93,44.62
156.58,0.252,0.477,2.304,2.539,69,9.91,44.88
156.65,0.044,0.518,2.304,2.538,69,9.91,45.06
156.71,0.05,0.373,2.304,2.539,69,9.91,45.29
156.77,0.144,0.311,2.304,2.538,69,9.91,45.57
156.84,0.315,0.352,2.304,2.538,69,9.93,45.86
156.9,0.156,0.311,2.304,2.538,69,9.91,46.1
156.97,-0.046,0.331,2.304,2.538,72,9.93,46.3
157.03,-0.042,0.331,2.304,2.538,72,9.91,46.5
157.1,-0.04,0.331,2.304,2.538,72,9.91,46.58
157.16,-0.04,0.331,2.304,2.539,72,9.91,46.69
157.23,0.015,0.352,2.304,2.538,72,9.93,46.88
157.29,-0.069,0.352,2.304,2.538,72,9.93,47.09
157.35,-0.066,0.394,2.304,2.538,72,9.93,47.32
157.42,0.296,0.559,2.304,2.538,72,9.93,47.42
157.48,0.0,0.29,2.304,2.538,72,9.93,47.41
157.55,0.069,0.331,2.304,2.538,72,9.93,47.44
157.61,0.22,0.331,2.304,2.538,72,9.93,47.49
157.68,0.22,0.352,2.304,2.538,72,9.93,47.52
157.74,-0.062,0.373,2.304,2.538,75,9.91,47.49
157.81,-0.081,0.311,2.304,2.538,75,9.91,47.48
157.87,-0.083,0.352,2.304,2.538,75,9.91,47.35
157.94,-0.087,0.352,2.304,2.538,75,9.91,47.18
158.0,-0.035,0.311,2.304,2.538,75,9.93,47.09
158.06,-0.079,0.331,2.303,2.538,75,9.91,47.02
158.13,-0.12,0.331,2.302,2.538,75,9.93,47.02
158.19,0.303,0.622,2.302,2.538,75,9.91,46.97
158.26,-0.07,0.373,2.302,2.538,75,9.91,46.8
158.32,0.023,0.352,2.302,2.538,75,9.91,46.67
158.39,0.156,0.373,2.302,2.538,75,9.93,46.59
158.45,0.265,0.311,2.302,2.536,75,9.93,46.52
158.52,-0.025,0.352,2.302,2.537,75,9.91,46.38
158.58,-0.091,0.331,2.302,2.536,75,9.91,46.22
158.65,-0.072,0.352,2.302,2.537,75,9.91,46.0
158.71,-0.072,0.331,2.302,2.537,75,9.93,45.65
158.77,-0.073,0.311,2.302,2.536,75,9.91,45.37
158.84,-0.025,0.331,2.302,2.536,75,9.93,45.17
158.9,-0.051,0.331,2.3,2.536,75,9.93,45.01
158.97,-0.094,0.311,2.302,2.536,75,9.93,44.89
159.03,0.314,0.601,2.302,2.536,75,9.91,44.68
159.1,-0.065,0.394,2.302,2.536,75,9.91,44.49
159.16,0.038,0.311,2.301,2.536,75,9.91,44.34
159.23,0.165,0.352,2.301,2.536,75,9.9,44.22
159.29,0.308,0.373,2.302,2.536,75,9.91,44.1
159.35,0.028,0.331,2.302,2.536,75,9.91,43.98
159.42,-0.07,0.373,2.302,2.536,70,9.93,43.89
159.48,-0.062,0.331,2.302,2.536,70,9.93,43.75
159.55,-0.067,0.373,2.302,2.536,70,9.93,43.54
159.61,-0.074,0.373,2.302,2.536,70,9.91,43.42
159.68,-0.069,0.352,2.302,2.536,70,9.91,43.4
159.74,-0.02,0.331,2.302,2.536,70,9.91,43.4
159.81,-0.101,0.311,2.302,2.536,70,9.93,43.44
159.87,0.031,0.414,2.302,2.536,70,9.93,43.42
159.94,0.135,0.559,2.302,2.536,70,9.93,43.4
160.0,-0.013,0.311,2.302,2.533,70,9.93,43.44
160.06,0.07,0.331,2.302,2.536,70,9.91,43.47
160.13,0.241,0.311,2.302,2.534,70,9.93,43.5
160.19,0.168,0.331,2.302,2.536,70,9.91,43.5
160.26,-0.086,0.311,2.302,2.536,68,9.93,43.5
160.32,-0.096,0.394,2.302,2.534,68,9.93,43.5
160.39,-0.094,0.352,2.304,2.534,68,9.93,43.42
160.45,-0.104,0.331,2.303,2.534,68,9.93,43.32
160.52,-0.1,0.311,2.304,2.533,68,9.93,43.31
160.58,-0.061,0.311,2.304,2.533,68,9.93,43.33
160.65,-0.146,0.352,2.304,2.536,68,9.93,43.36
160.71,-0.178,0.539,2.304,2.536,68,9.93,43.39
160.77,-0.163,0.559,2.304,2.534,68,9.93,43.37
160.84,-0.072,0.311,2.304,2.534,68,9.93,43.42
160.9,0.004,0.331,2.304,2.533,68,9.93,43.57
160.97,0.167,0.331,2.304,2.533,68,9.93,43.75
161.03,0.076,0.352,2.303,2.536,68,9.93,44.17
161.1,-0.169,0.331,2.303,2.534,68,9.93,44.19
161.16,-0.176,0.331,2.302,2.533,68,9.93,44.44
161.23,-0.172,0.331,2.302,2.533,68,9.93,44.57
161.29,-0.178,0.352,2.302,2.533,68,9.93,44.72
161.35,-0.119,0.352,2.302,2.533,68,9.93,44.96
161.42,-0.196,0.352,2.302,2.533,68,9.93,45.25
161.48,-0.216,0.414,2.302,2.533,68,9.93,45.6
161.55,0.154,0.559,2.302,2.533,68,9.93,45.83
161.61,-0.138,0.352,2.302,2.533,68,9.93,45.97
161.68,-0.07,0.331,2.302,2.533,68,9.93,46.16
161.74,0.076,0.352,2.302,2.533,68,9.93,46.41
161.81,0.104,0.331,2.302,2.533,68,9.93,46.7
161.87,-0.188,0.311,2.302,2.533,68,9.93,46.93
161.94,-0.217,0.352,2.302,2.533,68,9.93,47.14
162.0,-0.213,0.352,2.302,2.533,68,9.93,47.25
162.06,-0.191,0.311,2.302,2.533,68,9.93,47.32
162.13,-0.163,0.311,2.302,2.533,68,9.93,47.46
162.19,-0.236,0.29,2.301,2.533,68,9.93,47.6
162.26,0.102,0.435,2.3,2.531,68,9.91,47.73
162.32,-0.138,0.477,2.3,2.532,68,9.91,47.75
162.39,-0.124,0.331,2.3,2.532,68,9.91,47.65
162.45,-0.025,0.352,2.3,2.532,80,9.93,47.59
162.52,0.138,0.352,2.3,2.532,80,9.93,47.56
162.58,-0.043,0.352,2.3,2.532,80,9.93,47.55
162.65,-0.208,0.331,2.3,2.531,80,9.91,47.47
162.71,-0.196,0.352,2.3,2.531,80,9.93,47.39
162.77,-0.193,0.331,2.3,2.531,80,9.93,47.18
162.84,-0.169,0.331,2.3,2.531,80,9.93,46.93
162.9,-0.132,0.331,2.3,2.531,80,9.93,46.75
162.97,-0.201,0.311,2.3,2.531,80,9.93,46.6
163.03,0.142,0.497,2.3,2.531,80,9.93,46.52
163.1,-0.091,0.477,2.3,2.531,80,9.91,46.36
163.16,-0.069,0.352,2.3,2.531,80,9.93,46.16
163.23,0.04,0.311,2.3,2.531,77,9.93,46.01
163.29,0.221,0.352,2.3,2.531,77,9.93,45.9
163.35,0.049,0.352,2.3,2.531,77,9.93,45.8
163.42,-0.12,0.331,2.298,2.531,77,9.93,45.63
163.48,-0.104,0.331,2.297,2.531,77,9.93,45.45
163.55,-0.097,0.331,2.297,2.531,77,9.93,45.14
163.61,-0.096,0.331,2.297,2.531,77,9.93,44.83
163.68,-0.059,0.331,2.297,2.531,77,9.93,44.63
163.74,-0.057,0.352,2.297,2.531,77,9.93,44.45
163.81,-0.114,0.352,2.297,2.531,77,9.93,44.34
163.87,0.318,0.559,2.297,2.531,77,9.93,44.19
163.94,-0.109,0.601,2.297,2.531,77,9.93,44.02
164.0,0.018,0.331,2.297,2.531,77,9.93,43.92
164.06,0.131,0.394,2.297,2.529,77,9.93,43.85
164.13,0.303,0.352,2.297,2.531,77,9.93,43.79
164.19,0.077,0.331,2.297,2.531,77,9.93,43.74
164.26,-0.067,0.352,2.297,2.528,72,9.91,43.7
164.32,-0.057,0.352,2.297,2.531,72,9.93,43.64
164.39,-0.056,0.331,2.297,2.528,72,9.93,43.49
164.45,-0.061,0.331,2.297,2.529,72,9.93,43.38
164.52,-0.045,0.352,2.297,2.531,72,9.91,43.37
164.58,-0.017,0.331,2.297,2.531,72,9.93,43.36
164.65,-0.082,0.352,2.297,2.528,72,9.93,43.4
164.71,0.201,0.497,2.297,2.528,72,9.93,43.4
164.77,0.019,0.539,2.297,2.531,72,9.93,43.39
164.84,0.005,0.352,2.297,2.528,72,9.93,43.42
164.9,0.094,0.373,2.297,2.528,72,9.93,43.45
164.97,0.261,0.311,2.297,2.528,72,9.93,43.5
165.03,0.112,0.311,2.297,2.528,72,9.93,43.63
165.1,-0.099,0.331,2.297,2.528,70,9.93,43.86
165.16,-0.1,0.331,2.297,2.528,70,9.93,44.11
165.23,-0.096,0.311,2.297,2.528,70,9.91,44.23
165.29,-0.101,0.311,2.297,2.528,70,9.93,44.38
165.35,-0.089,0.352,2.297,2.528,70,9.91,44.64
165.42,-0.05,0.352,2.296,2.528,70,9.93,44.9
165.48,-0.129,0.311,2.296,2.528,70,9.91,45.21
165.55,0.032,0.414,2.295,2.528,70,9.91,45.42
165.61,0.112,0.622,2.295,2.528,70,9.93,45.58
165.68,-0.034,0.331,2.295,2.528,70,9.91,45.79
165.74,0.052,0.29,2.295,2.528,70,9.91,46.04
165.81,0.218,0.331,2.295,2.528,70,9.91,46.29
165.87,0.119,0.373,2.295,2.528,70,9.93,46.5
165.94,-0.121,0.331,2.295,2.528,70,9.93,46.7
166.0,-0.124,0.373,2.295,2.528,70,9.93,46.89
166.06,-0.119,0.352,2.295,2.528,70,9.93,46.97
166.13,-0.122,0.331,2.295,2.528,70,9.93,47.02
166.19,-0.081,0.373,2.295,2.528,70,9.93,47.17
166.26,-0.11,0.331,2.295,2.528,70,9.93,47.34
166.32,-0.156,0.331,2.295,2.528,70,9.93,47.53
166.39,0.292,0.539,2.295,2.528,70,9.93,47.6
166.45,-0.139,0.394,2.295,2.528,70,9.93,47.58
166.52,-0.025,0.331,2.295,2.527,70,9.93,47.59
166.58,0.096,0.331,2.295,2.527,70,9.93,47.62
166.65,0.239,0.352,2.295,2.527,70,9.93,47.69
166.71,-0.031,0.331,2.295,2.526,70,9.93,47.68
166.77,-0.132,0.352,2.295,2.526,73,9.93,47.65
166.84,-0.12,0.352,2.295,2.526,73,9.93,47.57
166.9,-0.122,0.331,2.295,2.526,73,9.93,47.37
166.97,-0.121,0.311,2.295,2.526,73,9.93,47.22
167.03,-0.066,0.331,2.295,2.526,73,9.93,47.14
167.1,-0.11,0.311,2.295,2.526,73,9.93,47.1
167.16,-0.142,0.352,2.295,2.526,73,9.91,47.07
167.23,0.286,0.559,2.295,2.526,73,9.93,46.95
167.29,-0.076,0.331,2.295,2.526,73,9.93,46.81
167.35,0.016,0.352,2.295,2.526,73,9.93,46.74
167.42,0.157,0.311,2.295,2.526,73,9.93,46.69
167.48,0.268,0.331,2.295,2.526,73,9.93,46.64
167.55,-0.027,0.331,2.295,2.526,73,9.93,46.54
167.61,-0.089,0.352,2.295,2.526,72,9.93,46.43
167.68,-0.071,0.331,2.295,2.526,72,9.93,46.25
167.74,-0.069,0.331,2.295,2.526,72,9.93,45.99
167.81,-0.065,0.331,2.295,2.526,72,9.93,45.78
167.87,-0.047,0.373,2.295,2.526,72,9.93,45.64
167.94,0.0,0.331,2.295,2.524,72,9.93,45.55
168.0,-0.072,0.352,2.295,2.526,72,9.91,45.49
168.06,0.175,0.497,2.295,2.526,72,9.93,45.32
168.13,0.107,0.58,2.295,2.523,72,9.93,45.14
168.19,0.046,0.352,2.295,2.526,72,9.93,45.02
168.26,0.145,0.331,2.295,2.524,72,9.93,44.93
168.32,0.324,0.331,2.295,2.524,72,9.93,44.84
168.39,0.198,0.352,2.295,2.523,72,9.91,44.72
168.45,-0.023,0.352,2.295,2.523,72,9.91,44.57
168.52,-0.018,0.311,2.295,2.523,68,9.91,44.44
168.58,-0.009,0.331,2.295,2.523,68,9.91,44.21
168.65,-0.014,0.331,2.295,2.523,68,9.91,43.99
168.71,-0.018,0.331,2.295,2.523,68,9.93,43.86
168.77,-0.016,0.311,2.295,2.523,68,9.91,43.78
168.84,0.041,0.352,2.295,2.523,68,9.91,43.78
168.9,-0.032,0.331,2.295,2.523,68,9.91,43.71
168.97,-0.053,0.373,2.295,2.523,68,9.91,43.61
169.03,0.304,0.642,2.295,2.523,68,9.91,43.62
169.1,0.017,0.352,2.295,2.523,68,9.91,43.66
169.16,0.079,0.331,2.295,2.523,68,9.91,43.8
169.23,0.228,0.331,2.295,2.523,68,9.93,44.05
169.29,0.273,0.331,2.295,2.523,68,9.91,44.33
169.35,-0.043,0.352,2.295,2.523,68,9.91,44.65
169.42,-0.086,0.311,2.295,2.523,64,9.93,44.99
169.48,-0.076,0.331,2.295,2.523,64,9.93,45.19
169.55,-0.081,0.311,2.295,2.523,64,9.93,45.34
169.61,-0.077,0.331,2.295,2.523,64,9.91,45.59
169.68,-0.028,0.331,2.295,2.523,64,9.93,45.85
169.74,-0.108,0.331,2.295,2.523,64,9.93,46.15
169.81,-0.07,0.373,2.295,2.523,64,9.93,46.35
169.87,0.237,0.539,2.293,2.523,64,9.93,46.43
169.94,-0.029,0.331,2.293,2.523,64,9.93,46.56
170.0,0.049,0.352,2.293,2.523,64,9.93,46.78
170.06,0.215,0.373,2.295,2.523,64,9.93,47.03
170.13,0.191,0.29,2.295,2.523,64,9.93,47.25
170.19,-0.094,0.352,2.293,2.522,72,9.93,47.39
170.26,-0.112,0.352,2.295,2.522,72,9.93,47.55
170.32,-0.106,0.311,2.295,2.523,72,9.93,47.59
170.39,-0.11,0.352,2.293,2.523,72,9.93,47.53
170.45,-0.094,0.29,2.292,2.521,72,9.93,47.48
170.52,-0.055,0.311,2.292,2.521,72,9.93,47.42
170.58,-0.134,0.331,2.293,2.521,72,9.93,47.42
170.65,0.169,0.435,2.292,2.521,72,9.93,47.36
170.71,0.001,0.477,2.292,2.521,72,9.93,47.21
170.77,-0.023,0.331,2.292,2.521,72,9.93,47.11
170.84,0.077,0.311,2.292,2.521,72,9.93,47.06
170.9,0.249,0.352,2.292,2.521,72,9.93,47.05
170.97,0.097,0.352,2.292,2.521,72,9.93,47.01
171.03,-0.104,0.331,2.292,2.521,72,9.93,46.89
171.1,-0.095,0.331,2.292,2.521,72,9.93,46.76
171.16,-0.086,0.352,2.292,2.521,72,9.93,46.51
171.23,-0.087,0.331,2.292,2.521,72,9.93,46.26
171.29,-0.063,0.331,2.292,2.521,72,9.93,46.09
171.35,-0.019,0.352,2.29,2.521,72,9.93,45.96
171.42,-0.091,0.331,2.29,2.521,72,9.93,45.87
171.48,0.216,0.477,2.29,2.521,72,9.93,45.72
171.55,0.029,0.477,2.29,2.521,72,9.93,45.53
171.61,0.028,0.29,2.29,2.521,72,9.93,45.39
171.68,0.133,0.311,2.29,2.521,72,9.93,45.28
