Time,ECG,EMG,foot GSR,hand GSR,HR,marker,RESP
0.0,-0.094,0.704,5.469,16.545,81,10.01,37.03
0.06,-0.089,0.642,5.47,16.564,81,10.01,36.86
0.13,-0.107,0.331,5.469,16.581,81,10.0,36.67
0.19,-0.097,0.684,5.469,16.593,81,10.0,36.38
0.26,-0.073,0.435,5.469,16.607,81,10.0,36.28
0.32,-0.149,0.642,5.469,16.62,81,10.0,36.24
0.39,0.117,0.539,5.469,16.628,81,10.0,36.29
0.45,-0.057,0.249,5.467,16.631,81,10.0,36.24
0.52,0.034,0.663,5.467,16.631,81,10.0,36.22
0.58,0.216,0.311,5.467,16.633,81,10.01,36.2
0.65,0.012,0.787,5.464,16.636,81,10.01,36.24
0.71,-0.106,0.601,5.464,16.636,82,10.01,36.3
0.77,-0.097,0.414,5.464,16.632,82,10.01,36.23
0.84,-0.117,0.58,5.463,16.624,82,10.01,36.22
0.9,-0.133,0.539,5.462,16.614,82,10.01,36.12
0.97,-0.129,0.58,5.462,16.603,82,10.01,36.07
1.03,-0.089,0.559,5.462,16.593,82,10.01,36.08
1.1,-0.164,0.539,5.46,16.591,82,10.01,36.19
1.16,0.084,0.373,5.459,16.599,82,10.01,36.28
1.23,-0.113,0.622,5.459,16.614,82,10.01,36.41
1.29,-0.017,0.373,5.459,16.62,82,10.0,36.57
1.35,0.152,0.725,5.458,16.626,82,10.0,36.73
1.42,0.023,0.394,5.457,16.626,82,10.0,36.9
1.48,-0.145,0.622,5.457,16.626,76,10.0,37.08
1.55,-0.144,0.456,5.457,16.624,76,10.0,37.26
1.61,-0.16,0.601,5.455,16.622,76,10.01,37.45
1.68,-0.181,0.352,5.454,16.619,76,10.02,37.5
1.74,-0.131,0.559,5.454,16.618,76,10.04,37.61
1.81,-0.183,0.414,5.454,16.617,76,10.04,37.83
1.87,0.088,0.601,5.452,16.614,76,10.05,38.1
1.94,-0.208,0.249,5.452,16.613,76,10.05,38.28
2.0,-0.057,0.746,5.452,16.613,76,10.04,38.42
2.06,0.098,0.352,5.452,16.614,76,10.04,38.56
2.13,0.125,0.663,5.449,16.614,76,10.05,38.64
2.19,-0.111,0.166,5.449,16.612,82,10.05,38.71
2.26,-0.117,0.539,5.449,16.608,82,10.05,38.68
2.32,-0.113,0.414,5.449,16.604,82,10.04,38.61
2.39,-0.127,0.642,5.447,16.599,82,10.04,38.39
2.45,-0.082,0.414,5.447,16.598,82,10.04,38.14
2.52,-0.116,0.601,5.447,16.597,82,10.04,38.03
2.58,0.087,0.622,5.447,16.596,82,10.04,37.95
2.65,-0.087,0.539,5.444,16.597,82,10.04,37.85
2.71,-0.016,0.684,5.444,16.595,82,10.04,37.66
2.77,0.13,0.663,5.444,16.587,82,10.04,37.53
2.84,0.201,0.58,5.444,16.582,82,10.04,37.37
2.9,-0.055,0.58,5.442,16.579,82,10.04,37.23
2.97,-0.071,0.539,5.442,16.577,83,10.04,37.13
3.03,-0.071,0.622,5.442,16.574,83,10.04,36.98
3.1,-0.088,0.725,5.44,16.572,83,10.04,36.81
3.16,-0.06,0.456,5.439,16.57,83,10.04,36.59
3.23,-0.072,0.601,5.439,16.567,83,10.04,36.53
3.29,-0.046,0.29,5.438,16.562,83,10.05,36.52
3.35,0.077,0.663,5.438,16.56,83,10.04,36.49
3.42,-0.017,0.331,5.437,16.556,83,10.05,36.4
3.48,0.102,0.601,5.437,16.554,83,10.05,36.38
3.55,0.235,0.58,5.437,16.552,83,10.05,36.34
3.61,-0.027,0.497,5.434,16.551,83,10.04,36.3
3.68,-0.077,0.642,5.434,16.551,82,10.05,36.3
3.74,-0.074,0.394,5.432,16.549,82,10.05,36.3
3.81,-0.095,0.642,5.432,16.546,82,10.05,36.28
3.87,-0.068,0.394,5.432,16.546,82,10.05,36.12
3.94,-0.078,0.58,5.429,16.546,82,10.04,36.07
4.0,-0.066,0.642,5.429,16.547,82,10.05,36.1
4.06,0.066,0.269,5.429,16.547,82,10.04,36.17
4.13,-0.023,0.642,5.428,16.546,82,10.05,36.17
4.19,0.097,0.311,5.427,16.546,82,10.05,36.21
4.26,0.233,0.746,5.427,16.544,82,10.05,36.21
4.32,-0.024,0.249,5.424,16.54,82,10.04,36.2
4.39,-0.074,0.746,5.424,16.537,84,10.05,36.21
4.45,-0.075,0.228,5.423,16.532,84,10.05,36.23
4.52,-0.097,0.642,5.422,16.527,84,10.04,36.26
4.58,-0.07,0.228,5.422,16.526,84,10.04,36.13
4.65,-0.089,0.394,5.422,16.526,84,10.05,36.13
4.71,-0.041,0.684,5.419,16.525,84,10.05,36.32
4.77,0.028,0.456,5.419,16.524,84,10.04,36.57
4.84,-0.032,0.684,5.417,16.522,84,10.05,36.7
4.9,0.089,0.311,5.417,16.521,84,10.05,36.89
4.97,0.201,0.663,5.417,16.52,84,10.05,37.06
5.03,-0.05,0.684,5.417,16.517,84,10.05,37.21
5.1,-0.097,0.331,5.417,16.516,84,10.05,37.4
5.16,-0.097,0.601,5.417,16.514,84,10.05,37.56
5.23,-0.102,0.456,5.414,16.511,84,10.05,37.68
5.29,-0.071,0.704,5.414,16.509,84,10.05,37.72
5.35,-0.143,0.394,5.413,16.508,84,10.05,37.86
5.42,0.114,0.787,5.412,16.508,84,10.04,38.04
5.48,-0.06,0.642,5.412,16.508,84,10.05,38.21
5.55,0.052,0.435,5.409,16.505,84,10.05,38.24
5.61,0.225,0.58,5.409,16.504,84,10.05,38.24
5.68,0.048,0.559,5.408,16.504,84,10.05,38.16
5.74,-0.065,0.663,5.407,16.503,90,10.05,38.05
5.81,-0.062,0.394,5.407,16.504,90,10.05,37.87
5.87,-0.065,0.331,5.407,16.508,90,10.05,37.74
5.94,-0.021,0.704,5.407,16.51,90,10.05,37.44
6.0,-0.068,0.477,5.407,16.505,90,10.05,37.18
6.06,0.146,0.601,5.404,16.503,90,10.05,37.08
6.13,-0.05,0.622,5.402,16.502,90,10.05,36.87
6.19,0.03,0.394,5.402,16.5,90,10.05,36.85
6.26,0.178,0.87,5.402,16.499,90,10.05,36.76
6.32,0.223,0.269,5.4,16.499,90,10.05,36.71
6.39,-0.031,0.787,5.399,16.499,90,10.05,36.63
6.45,-0.041,0.29,5.398,16.498,88,10.05,36.55
6.52,-0.049,0.331,5.397,16.504,88,10.05,36.48
6.58,-0.032,0.601,5.397,16.51,88,10.05,36.41
6.65,-0.038,0.394,5.394,16.51,88,10.05,36.25
6.71,-0.075,0.414,5.394,16.505,88,10.05,36.28
6.77,0.145,0.456,5.394,16.5,88,10.05,36.3
6.84,-0.011,0.414,5.392,16.498,88,10.05,36.32
6.9,0.089,0.684,5.393,16.495,88,10.05,36.3
6.97,0.224,0.269,5.392,16.497,88,10.05,36.33
7.03,-0.024,0.249,5.392,16.498,88,10.05,36.45
7.1,-0.096,0.497,5.391,16.503,90,10.05,36.69
7.16,-0.101,0.601,5.39,16.508,90,10.05,36.82
7.23,-0.097,0.767,5.39,16.51,90,10.05,37.05
7.29,-0.098,0.394,5.39,16.515,90,10.05,37.1
7.35,-0.123,0.269,5.388,16.52,90,10.05,37.25
7.42,0.065,0.725,5.387,16.526,90,10.05,37.53
7.48,-0.061,0.29,5.387,16.532,90,10.05,37.79
7.55,0.049,0.58,5.386,16.537,90,10.05,37.97
7.61,0.177,0.725,5.387,16.545,90,10.05,38.16
7.68,-0.055,0.373,5.386,16.552,90,10.05,38.35
7.74,-0.115,0.684,5.385,16.56,93,10.05,38.55
7.81,-0.104,0.373,5.385,16.568,93,10.05,38.68
7.87,-0.073,0.663,5.382,16.581,93,10.05,38.81
7.94,-0.115,0.394,5.382,16.594,93,10.05,38.81
8.0,0.108,0.58,5.382,16.611,93,10.05,38.93
8.06,-0.096,0.29,5.381,16.634,93,10.05,39.03
8.13,-0.005,0.704,5.38,16.66,93,10.04,39.08
8.19,0.148,0.29,5.38,16.688,93,10.05,39.0
8.26,0.192,0.497,5.38,16.711,93,10.05,38.95
8.32,-0.042,0.497,5.38,16.737,93,10.05,38.87
8.39,-0.05,0.497,5.377,16.764,95,10.05,38.72
8.45,-0.045,0.539,5.377,16.785,95,10.05,38.56
8.52,-0.041,0.29,5.377,16.803,95,10.05,38.36
8.58,-0.03,0.704,5.376,16.825,95,10.05,38.09
8.65,-0.085,0.394,5.375,16.845,95,10.05,37.97
8.71,0.171,0.642,5.375,16.864,95,10.05,37.91
8.77,0.005,0.207,5.375,16.88,95,10.05,37.84
8.84,0.113,0.58,5.375,16.894,95,10.05,37.71
8.9,0.28,0.186,5.373,16.904,95,10.05,37.6
8.97,0.035,0.767,5.372,16.91,95,10.05,37.45
9.03,-0.034,0.311,5.372,16.915,89,10.05,37.29
9.1,-0.023,0.58,5.372,16.915,89,10.05,37.16
9.16,-0.031,0.477,5.37,16.913,89,10.05,37.02
9.23,0.001,0.912,5.37,16.91,89,10.05,36.76
9.29,-0.076,0.394,5.37,16.908,89,10.05,36.66
9.35,0.201,0.767,5.37,16.903,89,10.05,36.61
9.42,0.002,0.269,5.37,16.898,89,10.05,36.62
9.48,0.09,0.684,5.37,16.895,89,10.05,36.53
9.55,0.272,0.477,5.368,16.89,89,10.05,36.52
9.61,0.107,0.331,5.367,16.885,89,10.05,36.49
9.68,-0.029,0.663,5.367,16.88,90,10.05,36.5
9.74,-0.018,0.228,5.367,16.877,90,10.05,36.46
9.81,-0.031,0.207,5.365,16.873,90,10.05,36.42
9.87,-0.03,0.725,5.365,16.87,90,10.05,36.29
9.94,0.002,0.269,5.365,16.869,90,10.05,36.22
10.0,-0.077,0.539,5.363,16.869,90,10.05,36.33
10.06,0.179,0.352,5.362,16.869,90,10.05,36.53
10.13,-0.017,0.228,5.362,16.873,90,10.05,36.66
10.19,0.069,0.352,5.361,16.878,90,10.05,36.85
10.26,0.238,0.539,5.36,16.883,90,10.05,37.01
10.32,0.088,0.29,5.36,16.89,90,10.05,37.15
10.39,-0.057,0.228,5.358,16.901,84,10.05,37.35
10.45,-0.054,0.684,5.357,16.913,84,10.05,37.53
10.52,-0.078,0.704,5.357,16.928,84,10.05,37.67
10.58,-0.101,0.394,5.357,16.942,84,10.05,37.7
10.65,-0.079,0.352,5.356,16.961,84,10.05,37.85
10.71,-0.08,0.58,5.355,16.982,84,10.05,38.04
10.77,-0.057,0.311,5.355,17.006,84,10.05,38.27
10.84,0.054,0.539,5.355,17.03,84,10.05,38.38
10.9,-0.016,0.829,5.355,17.052,84,10.05,38.52
10.97,0.105,0.249,5.352,17.073,84,10.05,38.62
11.03,0.225,0.642,5.352,17.094,84,10.05,38.69
11.1,-0.008,0.311,5.352,17.113,84,10.05,38.77
11.16,-0.059,0.829,5.35,17.131,80,10.05,38.85
11.23,-0.047,0.559,5.35,17.144,80,10.05,38.77
11.29,-0.067,0.373,5.35,17.152,80,10.06,38.62
11.35,-0.079,0.331,5.35,17.16,80,10.06,38.42
11.42,-0.068,0.704,5.348,17.164,80,10.06,38.33
11.48,-0.025,0.352,5.347,17.168,80,10.06,38.25
11.55,-0.095,0.684,5.347,17.165,80,10.06,38.18
11.61,0.17,0.331,5.347,17.161,80,10.06,38.04
11.68,-0.015,0.663,5.347,17.155,80,10.05,37.95
11.74,0.085,0.249,5.347,17.146,80,10.05,37.85
11.81,0.27,0.663,5.347,17.137,80,10.05,37.72
11.87,0.097,0.207,5.347,17.124,80,10.05,37.58
11.94,-0.039,0.684,5.345,17.113,75,10.05,37.45
12.0,-0.029,0.642,5.345,17.099,75,10.05,37.24
12.06,-0.046,0.352,5.343,17.088,75,10.05,37.04
12.13,-0.061,0.684,5.342,17.078,75,10.05,36.74
12.19,-0.056,0.663,5.342,17.073,75,10.05,36.55
12.26,-0.015,0.331,5.342,17.073,75,10.05,36.49
12.32,-0.09,0.684,5.342,17.082,75,10.05,36.53
12.39,0.168,0.373,5.342,17.102,75,10.06,36.53
12.45,-0.018,0.704,5.34,17.135,75,10.06,36.52
12.52,0.076,0.767,5.34,17.181,75,10.06,36.58
12.58,0.258,0.311,5.34,17.241,75,10.05,36.59
12.65,0.094,0.559,5.338,17.314,75,10.05,36.57
12.71,-0.062,0.435,5.338,17.401,76,10.05,36.6
12.77,-0.058,0.539,5.337,17.5,76,10.05,36.64
12.84,-0.074,0.311,5.337,17.606,76,10.05,36.74
12.9,-0.095,0.249,5.337,17.726,76,10.05,36.72
12.97,-0.098,0.186,5.337,17.851,76,10.05,36.76
13.03,-0.051,0.622,5.335,17.981,76,10.05,36.98
13.1,-0.12,0.29,5.335,18.113,76,10.06,37.25
13.16,0.135,0.249,5.333,18.247,76,10.06,37.42
13.23,-0.089,0.29,5.332,18.381,76,10.05,37.7
13.29,0.014,0.249,5.332,18.509,76,10.06,37.9
13.35,0.188,0.249,5.332,18.628,76,10.06,38.06
13.42,0.08,0.269,5.332,18.74,76,10.05,38.26
13.48,-0.105,0.684,5.332,18.857,77,10.05,38.49
13.55,-0.092,0.352,5.332,18.955,77,10.06,38.65
13.61,-0.097,0.622,5.332,19.045,77,10.06,38.76
13.68,-0.11,0.249,5.331,19.119,77,10.05,38.76
13.74,-0.055,0.559,5.332,19.188,77,10.05,38.82
13.81,-0.111,0.311,5.332,19.258,77,10.05,38.91
13.87,0.162,0.663,5.333,19.325,77,10.05,38.97
13.94,-0.116,0.249,5.335,19.392,77,10.05,38.88
14.0,0.025,0.207,5.336,19.459,77,10.05,38.75
14.06,0.206,0.207,5.337,19.527,77,10.06,38.62
14.13,0.15,0.249,5.34,19.588,77,10.05,38.48
14.19,-0.068,0.539,5.341,19.643,82,10.05,38.34
14.26,-0.06,0.704,5.345,19.691,82,10.06,38.18
14.32,-0.061,0.414,5.348,19.724,82,10.06,38.04
14.39,-0.064,0.663,5.352,19.754,82,10.06,37.8
14.45,-0.045,0.684,5.356,19.787,82,10.05,37.57
14.52,-0.014,0.249,5.363,19.817,82,10.05,37.84
14.58,-0.09,0.642,5.373,19.849,82,10.05,37.95
14.65,0.17,0.352,5.378,19.887,82,10.05,37.34
14.71,0.0,0.642,5.386,19.92,82,10.05,36.89
14.77,0.094,0.435,5.392,19.934,82,10.05,36.7
14.84,0.277,0.58,5.398,19.942,82,10.05,36.56
14.9,0.071,0.249,5.406,19.942,82,10.05,36.51
14.97,-0.043,0.29,5.416,19.925,80,10.05,36.63
15.03,-0.035,0.684,5.425,19.903,80,10.05,36.62
15.1,-0.053,0.166,5.433,19.878,80,10.05,36.59
15.16,-0.058,0.186,5.441,19.859,80,10.05,36.4
15.23,-0.019,0.601,5.449,19.834,80,10.05,36.26
15.29,-0.095,0.477,5.456,19.813,80,10.05,36.29
15.35,0.155,0.249,5.464,19.793,80,10.05,36.46
15.42,-0.039,0.186,5.474,19.777,80,10.05,36.64
15.48,0.047,0.249,5.481,19.764,80,10.05,36.73
15.55,0.223,0.207,5.488,19.757,80,10.05,36.9
15.61,0.076,0.249,5.495,19.756,80,10.05,37.06
15.68,-0.08,0.269,5.503,19.75,83,10.05,37.29
15.74,-0.076,0.269,5.511,19.748,83,10.05,37.52
15.81,-0.092,0.207,5.517,19.762,83,10.05,37.73
15.87,-0.067,0.166,5.525,19.795,83,10.05,37.77
15.94,-0.098,0.269,5.53,19.842,83,10.05,37.89
16.0,0.054,0.331,5.536,19.895,83,10.05,38.07
16.06,-0.054,0.186,5.542,19.954,83,10.05,38.27
16.13,-0.014,0.269,5.548,20.014,83,10.05,38.36
16.19,0.124,0.186,5.556,20.074,83,10.05,38.44
16.26,0.205,0.269,5.563,20.133,83,10.05,38.51
16.32,-0.05,0.311,5.572,20.199,83,10.05,38.53
16.39,-0.069,0.186,5.578,20.256,88,10.05,38.5
16.45,-0.068,0.311,5.585,20.304,88,10.05,38.39
16.52,-0.077,0.352,5.594,20.347,88,10.05,38.23
16.58,-0.036,0.29,5.604,20.361,88,10.05,38.01
16.65,-0.112,0.29,5.613,20.36,88,10.05,37.9
16.71,0.142,0.207,5.623,20.356,88,10.05,37.82
16.77,-0.046,0.394,5.63,20.346,88,10.05,37.75
16.84,0.056,0.311,5.637,20.332,88,10.05,37.61
16.9,0.239,0.311,5.645,20.303,88,10.05,37.47
16.97,0.08,0.311,5.653,20.27,88,10.05,37.34
17.03,-0.054,0.29,5.66,20.226,88,10.05,37.22
17.1,-0.046,0.29,5.667,20.18,88,10.05,37.11
17.16,-0.059,0.269,5.674,20.125,88,10.05,37.01
17.23,-0.023,0.249,5.681,20.064,88,10.05,36.8
17.29,-0.074,0.269,5.689,20.01,88,10.05,36.65
17.35,0.128,0.29,5.697,19.964,88,10.05,36.6
17.42,-0.052,0.249,5.707,19.918,88,10.05,36.63
17.48,0.014,0.228,5.717,19.876,88,10.05,36.59
17.55,0.156,0.331,5.727,19.842,88,10.05,36.58
17.61,0.211,0.249,5.737,19.826,88,10.05,36.53
17.68,-0.041,0.331,5.747,19.805,88,10.05,36.5
17.74,-0.048,0.269,5.757,19.804,89,10.05,36.5
17.81,-0.056,0.269,5.766,19.797,89,10.05,36.5
17.87,-0.074,0.29,5.773,19.785,89,10.05,36.44
17.94,-0.022,0.228,5.786,19.774,89,10.05,36.28
18.0,-0.086,0.207,5.799,19.756,89,10.05,36.26
18.06,0.168,0.331,5.812,19.729,89,10.05,36.32
18.13,-0.106,0.29,5.822,19.697,89,10.05,36.36
18.19,0.012,0.207,5.832,19.662,89,10.05,36.4
18.26,0.157,0.249,5.841,19.627,89,10.05,36.48
18.32,0.152,0.269,5.85,19.588,89,10.05,36.61
18.39,-0.069,0.228,5.858,19.543,85,10.05,36.77
18.45,-0.076,0.269,5.866,19.497,85,10.05,36.98
18.52,-0.098,0.166,5.874,19.447,85,10.05,37.13
18.58,-0.118,0.331,5.881,19.397,85,10.05,37.16
18.65,-0.07,0.249,5.89,19.351,85,10.05,37.24
18.71,-0.136,0.228,5.896,19.299,85,10.05,37.45
18.77,0.123,0.228,5.905,19.242,85,10.05,37.69
18.84,-0.157,0.352,5.914,19.187,85,10.05,37.87
18.9,-0.029,0.207,5.92,19.136,85,10.05,38.0
18.97,0.119,0.58,5.925,19.086,84,10.05,38.16
19.03,0.085,0.269,5.931,19.037,84,10.05,38.28
19.1,-0.106,0.186,5.937,18.982,84,10.05,38.41
19.16,-0.101,0.29,5.943,18.923,84,10.05,38.54
19.23,-0.111,0.311,5.95,18.867,84,10.05,38.66
19.29,-0.092,0.269,5.955,18.819,84,10.05,38.66
19.35,-0.099,0.207,5.959,18.775,84,10.05,38.65
19.42,-0.049,0.269,5.961,18.736,84,10.05,38.72
19.48,0.028,0.311,5.965,18.703,84,10.05,38.75
19.55,-0.026,0.186,5.969,18.673,84,10.05,38.69
19.61,0.1,0.249,5.971,18.642,84,10.05,38.55
19.68,0.206,0.228,5.971,18.612,84,10.05,38.4
19.74,-0.031,0.29,5.971,18.596,84,10.05,38.23
19.81,-0.059,0.269,5.971,18.592,89,10.05,38.1
19.87,-0.056,0.249,5.972,18.592,89,10.05,37.94
19.94,-0.077,0.331,5.975,18.608,89,10.05,37.75
20.0,-0.023,0.207,5.975,18.628,89,10.05,37.42
20.06,-0.095,0.269,5.974,18.646,89,10.05,37.29
20.13,0.169,0.435,5.974,18.654,89,10.05,37.2
20.19,-0.088,0.269,5.974,18.654,89,10.05,37.09
20.26,0.027,0.29,5.974,18.653,89,10.05,36.97
20.32,0.189,0.228,5.974,18.652,89,10.05,36.87
20.39,0.137,0.311,5.974,18.641,89,10.05,36.78
20.45,-0.059,0.331,5.974,18.635,88,10.05,36.68
20.52,-0.05,0.186,5.976,18.629,88,10.05,36.62
20.58,-0.064,0.394,5.98,18.62,88,10.05,36.56
20.65,-0.046,0.249,5.979,18.618,88,10.05,36.42
20.71,-0.064,0.29,5.979,18.605,88,10.05,36.25
20.77,-0.047,0.269,5.977,18.581,88,10.05,36.26
20.84,0.087,0.186,5.976,18.552,88,10.06,36.33
20.9,-0.014,0.249,5.975,18.531,88,10.06,36.36
20.97,0.102,0.166,5.974,18.511,88,10.06,36.35
21.03,0.22,0.269,5.971,18.488,88,10.05,36.33
21.1,-0.029,0.249,5.97,18.462,88,10.05,36.3
21.16,-0.074,0.186,5.967,18.435,88,10.05,36.3
21.23,-0.076,0.166,5.965,18.405,88,10.05,36.28
21.29,-0.096,0.373,5.962,18.374,88,10.06,36.38
21.35,-0.048,0.166,5.959,18.353,88,10.06,36.25
21.42,-0.128,0.207,5.957,18.332,88,10.06,36.31
21.48,0.11,0.207,5.954,18.307,88,10.05,36.7
21.55,-0.131,0.249,5.954,18.306,88,10.05,36.72
21.61,-0.02,0.228,5.952,18.305,88,10.05,36.93
21.68,0.13,0.186,5.95,18.312,88,10.05,37.17
21.74,0.06,0.249,5.949,18.329,88,10.06,37.33
21.81,-0.126,0.186,5.946,18.35,88,10.06,37.52
21.87,-0.121,0.311,5.944,18.377,88,10.05,37.72
21.94,-0.142,0.249,5.941,18.409,88,10.05,37.9
22.0,-0.117,0.186,5.937,18.446,88,10.05,37.93
22.06,-0.154,0.29,5.935,18.485,88,10.06,38.02
22.13,0.055,0.186,5.932,18.521,88,10.06,38.22
22.19,-0.149,0.249,5.929,18.556,88,10.07,38.41
22.26,-0.053,0.269,5.927,18.589,88,10.07,38.5
22.32,0.088,0.145,5.924,18.619,90,10.07,38.58
22.39,0.14,0.249,5.92,18.644,90,10.06,38.63
22.45,-0.082,0.228,5.918,18.664,90,10.07,38.61
22.52,-0.084,0.269,5.914,18.68,90,10.07,38.51
22.58,-0.081,0.228,5.912,18.691,90,10.07,38.39
22.65,-0.102,0.166,5.909,18.698,90,10.07,38.22
22.71,-0.044,0.331,5.905,18.699,90,10.06,37.93
22.77,-0.115,0.269,5.903,18.698,90,10.04,37.77
22.84,0.145,0.269,5.9,18.689,90,10.04,37.66
22.9,-0.093,0.269,5.898,18.675,90,10.02,37.52
22.97,0.022,0.186,5.895,18.657,90,10.05,37.32
23.03,0.185,0.269,5.892,18.637,90,10.06,37.21
23.1,0.119,0.207,5.889,18.613,90,10.06,37.04
23.16,-0.07,0.435,5.887,18.587,86,10.07,36.9
23.23,-0.062,0.207,5.885,18.558,86,10.07,36.83
23.29,-0.076,0.331,5.883,18.53,86,10.1,36.73
23.35,-0.095,0.352,5.88,18.501,86,10.1,36.57
23.42,-0.043,0.269,5.878,18.475,86,10.11,36.49
23.48,-0.103,0.331,5.875,18.447,86,10.11,36.45
23.55,0.15,0.29,5.873,18.424,86,10.12,36.51
23.61,-0.119,0.207,5.87,18.399,86,10.12,36.59
23.68,0.001,0.269,5.868,18.372,86,10.11,36.63
23.74,0.15,0.269,5.867,18.346,86,10.1,36.59
23.81,0.147,0.186,5.863,18.317,86,10.1,36.53
23.87,-0.072,0.311,5.86,18.292,83,10.1,36.63
23.94,-0.071,0.311,5.858,18.269,83,10.11,36.68
24.0,-0.098,1.14,5.854,18.249,83,10.11,36.61
24.06,-0.107,1.14,5.852,18.229,83,10.11,36.48
24.13,-0.077,0.477,5.85,18.21,83,10.11,36.42
24.19,-0.089,0.642,5.847,18.183,83,10.11,36.42
24.26,-0.066,0.725,5.844,18.162,83,10.11,36.34
24.32,0.027,1.885,5.839,18.141,83,10.1,36.51
24.39,-0.042,0.58,5.839,18.138,83,10.1,36.52
24.45,0.069,1.554,5.837,18.128,83,10.1,36.72
24.52,0.177,0.684,5.834,18.118,83,10.08,36.98
24.58,-0.066,1.16,5.833,18.111,83,10.1,37.21
24.65,-0.117,0.456,5.831,18.106,81,10.1,37.54
24.71,-0.115,1.16,5.828,18.101,81,10.08,37.94
24.77,-0.142,1.119,5.826,18.096,81,10.08,38.25
24.84,-0.099,0.891,5.822,18.091,81,10.08,38.37
24.9,-0.151,1.16,5.82,18.085,81,10.1,38.57
24.97,0.104,1.14,5.818,18.079,81,10.08,38.89
25.03,-0.195,0.414,5.816,18.074,81,10.06,39.23
25.1,-0.049,1.285,5.815,18.069,81,10.04,39.43
25.16,0.105,0.932,5.812,18.064,87,10.04,39.6
25.23,0.105,1.243,5.811,18.059,87,10.04,39.82
25.29,-0.116,0.849,5.808,18.054,87,10.04,39.97
25.35,-0.109,1.14,5.806,18.049,87,10.05,39.98
25.42,-0.108,1.202,5.805,18.046,87,10.05,40.03
25.48,-0.124,0.559,5.803,18.041,87,10.06,39.93
25.55,-0.07,1.927,5.801,18.036,87,10.06,39.71
25.61,-0.121,1.264,5.8,18.034,87,10.06,39.59
25.68,0.142,0.373,5.797,18.029,87,10.07,39.52
25.74,-0.141,0.829,5.797,18.024,87,10.06,39.45
25.81,0.0,1.222,5.795,18.019,87,10.05,39.38
25.87,0.164,0.849,5.792,18.014,87,10.06,39.25
25.94,0.158,1.202,5.791,18.008,87,10.06,39.06
26.0,-0.073,1.367,5.79,17.999,87,10.05,38.92
26.06,-0.072,0.891,5.787,17.994,84,10.05,38.78
26.13,-0.077,1.347,5.786,17.992,84,10.04,38.7
26.19,-0.091,1.222,5.785,17.987,84,10.04,38.57
26.26,-0.048,0.58,5.782,17.983,84,10.05,38.46
26.32,-0.078,1.388,5.781,17.977,84,10.05,38.6
26.39,0.074,0.787,5.78,17.972,84,10.06,38.68
26.45,-0.025,0.642,5.777,17.971,84,10.06,38.5
26.52,-0.002,1.036,5.775,17.968,84,10.07,38.09
26.58,0.144,0.477,5.773,17.971,84,10.07,37.7
26.65,0.232,0.166,5.772,17.977,84,10.07,37.39
26.71,-0.037,0.186,5.77,17.985,84,10.08,37.03
26.77,-0.054,0.228,5.768,17.999,82,10.1,36.74
26.84,-0.059,0.829,5.767,18.015,82,10.1,36.72
26.9,-0.074,0.787,5.765,18.035,82,10.1,36.84
26.97,-0.025,0.166,5.763,18.061,82,10.1,36.84
27.03,-0.072,0.622,5.761,18.086,82,10.1,36.54
27.1,0.154,1.057,5.76,18.107,82,10.1,36.23
27.16,-0.08,0.559,5.757,18.131,82,10.1,36.18
27.23,0.019,0.29,5.757,18.152,82,10.1,36.3
27.29,0.163,0.207,5.756,18.171,82,10.1,36.53
27.35,0.189,0.642,5.755,18.189,82,10.1,36.78
27.42,-0.054,0.269,5.753,18.202,82,10.1,37.07
27.48,-0.07,0.166,5.752,18.198,85,10.1,37.28
27.55,-0.077,0.269,5.75,18.197,85,10.08,37.51
27.61,-0.066,0.186,5.748,18.197,85,10.1,37.65
27.68,-0.089,0.29,5.746,18.194,85,10.1,37.77
27.74,-0.021,0.29,5.745,18.192,85,10.1,38.03
27.81,-0.008,0.622,5.743,18.189,85,10.1,38.34
27.87,-0.032,0.331,5.743,18.192,85,10.1,38.62
27.94,0.092,0.601,5.74,18.199,85,10.1,38.79
28.0,0.198,0.145,5.739,18.212,85,10.1,38.96
28.06,-0.048,0.518,5.738,18.23,85,10.1,39.14
28.13,-0.078,0.207,5.738,18.255,91,10.1,39.29
28.19,-0.063,0.145,5.736,18.285,91,10.1,39.38
28.26,-0.024,0.207,5.735,18.32,91,10.1,39.44
28.32,-0.07,0.207,5.734,18.36,91,10.1,39.29
28.39,0.197,0.456,5.733,18.402,91,10.08,39.24
28.45,-0.085,0.311,5.73,18.447,91,10.08,39.22
28.52,0.049,0.331,5.73,18.489,91,10.08,39.14
28.58,0.205,0.269,5.729,18.534,91,10.08,38.95
28.65,0.218,0.311,5.728,18.577,91,10.08,38.73
28.71,-0.008,0.663,5.728,18.621,91,10.08,38.41
28.77,-0.003,0.58,5.725,18.664,94,10.08,38.34
28.84,-0.001,0.331,5.725,18.703,94,10.08,38.53
28.9,0.039,0.29,5.724,18.736,94,10.08,38.5
28.97,0.256,0.311,5.723,18.762,94,10.08,38.18
29.03,0.229,0.29,5.723,18.786,94,10.08,38.04
29.1,-0.025,0.145,5.723,18.802,94,10.08,37.94
29.16,0.09,0.228,5.723,18.81,94,10.08,37.83
29.23,0.251,0.207,5.723,18.816,94,10.08,37.67
29.29,0.241,0.311,5.72,18.809,94,10.08,37.47
29.35,0.002,0.228,5.72,18.809,94,10.08,37.45
29.42,0.008,0.331,5.72,18.798,94,10.08,37.31
29.48,0.002,0.186,5.72,18.785,94,10.08,37.14
29.55,0.032,0.249,5.72,18.758,94,10.08,36.85
29.61,-0.024,0.269,5.72,18.737,94,10.07,36.52
29.68,0.206,0.29,5.72,18.724,94,10.07,36.49
29.74,-0.011,0.249,5.719,18.704,94,10.06,36.79
29.81,0.061,0.311,5.72,18.684,94,10.06,37.08
29.87,0.212,0.166,5.721,18.664,94,10.06,37.07
29.94,0.23,0.186,5.723,18.643,94,10.06,37.04
30.0,-0.019,0.249,5.723,18.62,94,10.06,37.09
30.06,-0.032,0.186,5.72,18.597,91,10.05,37.3
30.13,-0.047,0.249,5.721,18.575,91,10.05,37.58
30.19,-0.039,0.352,5.723,18.553,91,10.05,37.71
30.26,-0.05,0.249,5.723,18.535,91,10.05,37.73
30.32,-0.068,0.186,5.723,18.515,91,10.05,37.87
30.39,0.096,0.207,5.723,18.495,91,10.05,38.13
30.45,-0.03,0.207,5.723,18.473,91,10.05,38.34
30.52,0.078,0.228,5.723,18.454,91,10.05,38.44
30.58,0.196,0.207,5.723,18.437,91,10.04,38.64
30.65,-0.045,0.207,5.721,18.419,91,10.04,38.83
30.71,-0.105,0.166,5.72,18.409,90,10.04,39.04
30.77,-0.094,0.228,5.72,18.4,90,10.05,39.24
30.84,-0.075,0.186,5.72,18.393,90,10.04,39.27
30.9,-0.1,0.207,5.72,18.382,90,10.04,39.3
30.97,0.002,0.186,5.718,18.36,90,10.05,39.44
31.03,-0.001,0.249,5.718,18.342,90,10.04,39.59
31.1,-0.013,0.249,5.718,18.318,90,10.04,39.73
31.16,0.131,0.228,5.718,18.294,90,10.04,39.67
31.23,0.215,0.186,5.718,18.278,90,10.05,39.57
31.29,-0.031,0.166,5.718,18.273,90,10.04,39.43
31.35,-0.048,0.186,5.715,18.264,94,10.04,39.14
31.42,-0.061,0.207,5.715,18.255,94,10.04,38.91
31.48,-0.065,0.207,5.715,18.245,94,10.04,38.66
31.55,-0.018,0.166,5.715,18.239,94,10.04,38.31
31.61,-0.076,0.228,5.713,18.237,94,10.04,38.08
31.68,0.193,0.186,5.711,18.238,94,10.04,37.86
31.74,-0.081,0.269,5.71,18.27,94,10.04,37.53
31.81,0.03,0.186,5.71,18.274,94,10.04,37.51
31.87,0.186,0.145,5.71,18.282,94,10.04,37.43
31.94,0.202,0.186,5.709,18.287,94,10.04,37.3
32.0,-0.048,0.228,5.708,18.295,94,10.04,37.16
32.06,-0.048,0.166,5.708,18.302,85,10.04,37.11
32.13,-0.058,0.186,5.705,18.307,85,10.04,37.03
32.19,-0.078,0.186,5.705,18.316,85,10.04,36.85
32.26,-0.027,0.207,5.703,18.327,85,10.04,36.63
32.32,-0.092,0.207,5.703,18.347,85,10.04,36.64
32.39,0.165,0.269,5.7,18.368,85,10.04,36.73
32.45,-0.095,0.29,5.7,18.389,85,10.05,36.77
32.52,0.02,0.29,5.699,18.42,85,10.05,36.65
32.58,0.19,0.29,5.698,18.453,85,10.05,36.67
32.65,0.154,0.228,5.695,18.486,85,10.05,36.62
32.71,-0.071,0.186,5.695,18.512,85,10.06,36.69
32.77,-0.074,0.207,5.693,18.539,85,10.06,36.67
32.84,-0.088,0.124,5.691,18.562,85,10.06,36.68
32.9,-0.107,0.186,5.69,18.585,85,10.06,36.59
32.97,-0.057,0.166,5.689,18.603,85,10.07,36.5
33.03,-0.123,0.228,5.688,18.616,85,10.06,36.59
33.1,0.132,0.249,5.685,18.623,85,10.06,36.8
33.16,-0.135,0.207,5.684,18.628,85,10.06,37.0
33.23,-0.021,0.207,5.683,18.629,85,10.06,37.17
33.29,0.14,0.186,5.68,18.627,84,10.06,37.35
33.35,0.114,0.249,5.679,18.626,84,10.06,37.51
33.42,-0.112,0.166,5.678,18.621,84,10.07,37.68
33.48,-0.119,0.186,5.676,18.616,84,10.07,37.84
33.55,-0.131,0.166,5.675,18.612,84,10.07,37.99
33.61,-0.127,0.186,5.674,18.607,84,10.07,38.09
33.68,-0.124,0.207,5.673,18.609,84,10.07,38.24
33.74,-0.159,0.311,5.671,18.624,84,10.07,38.5
33.81,0.03,0.331,5.67,18.654,84,10.07,38.81
33.87,-0.08,0.207,5.669,18.701,84,10.07,39.1
33.94,0.048,0.166,5.668,18.767,84,10.07,39.41
34.0,0.192,0.166,5.666,18.852,88,10.07,39.75
34.06,-0.041,0.207,5.665,18.952,88,10.07,39.94
34.13,-0.093,0.166,5.665,19.063,88,10.06,40.02
34.19,-0.072,0.228,5.663,19.183,88,10.07,39.98
34.26,-0.078,0.145,5.663,19.305,88,10.07,39.74
34.32,-0.025,0.228,5.661,19.423,88,10.07,39.33
34.39,-0.073,0.166,5.66,19.538,88,10.07,39.02
34.45,0.171,0.207,5.66,19.649,88,10.07,38.74
34.52,-0.071,0.373,5.658,19.743,88,10.07,38.52
34.58,0.042,0.249,5.658,19.828,88,10.07,38.25
34.65,0.2,0.249,5.658,19.902,88,10.07,38.1
34.71,0.222,0.186,5.656,19.969,88,10.07,37.94
34.77,-0.021,0.228,5.656,20.024,88,10.07,37.67
34.84,-0.021,0.249,5.656,20.07,87,10.07,37.54
34.9,-0.026,0.207,5.656,20.105,87,10.07,37.55
34.97,-0.046,0.166,5.653,20.132,87,10.07,37.31
35.03,-0.053,0.331,5.653,20.154,87,10.07,37.03
35.1,-0.057,0.29,5.653,20.177,87,10.07,37.02
35.16,0.107,0.249,5.653,20.203,87,10.07,36.99
35.23,0.008,0.166,5.653,20.236,87,10.07,37.04
35.29,0.038,0.166,5.653,20.277,87,10.07,37.09
35.35,0.175,0.145,5.654,20.378,87,10.07,37.07
35.42,0.245,0.186,5.653,20.384,87,10.07,37.06
35.48,-0.015,0.186,5.653,20.438,87,10.07,37.1
35.55,-0.03,0.166,5.653,20.503,83,10.07,37.12
35.61,-0.032,0.207,5.654,20.581,83,10.07,37.06
35.68,-0.054,0.145,5.656,20.667,83,10.07,37.0
35.74,-0.061,0.186,5.656,20.747,83,10.07,36.82
35.81,-0.001,0.186,5.658,20.817,83,10.07,36.79
35.87,-0.071,0.269,5.659,20.869,83,10.07,36.91
35.94,0.165,0.186,5.661,20.915,83,10.07,36.97
36.0,-0.072,0.249,5.663,20.951,83,10.07,37.0
36.06,0.038,0.228,5.664,20.975,83,10.07,37.06
36.13,0.192,0.249,5.665,20.987,83,10.07,37.15
36.19,0.126,0.207,5.668,20.989,83,10.07,37.25
36.26,-0.075,0.249,5.669,20.981,80,10.07,37.39
36.32,-0.076,0.186,5.671,20.961,80,10.07,37.57
36.39,-0.096,0.166,5.674,20.93,80,10.07,37.78
36.45,-0.12,0.207,5.676,20.892,80,10.07,37.82
36.52,-0.104,0.249,5.679,20.848,80,10.07,37.96
36.58,-0.1,0.145,5.681,20.796,80,10.07,38.22
36.65,-0.103,0.249,5.685,20.74,80,10.07,38.52
36.71,0.028,0.228,5.689,20.679,80,10.07,38.71
36.77,-0.056,0.166,5.694,20.619,80,10.07,38.87
36.84,0.063,0.166,5.699,20.553,80,10.07,39.05
36.9,0.187,0.228,5.704,20.485,80,10.07,39.2
36.97,-0.042,0.207,5.706,20.416,80,10.07,39.32
37.03,-0.093,0.166,5.715,20.347,80,10.07,39.45
37.1,-0.08,0.186,5.721,20.281,80,10.07,39.51
37.16,-0.096,0.186,5.726,20.215,80,10.07,39.44
37.23,-0.066,0.249,5.729,20.153,80,10.07,39.2
37.29,-0.079,0.228,5.734,20.095,80,10.07,39.07
37.35,-0.022,0.228,5.739,20.037,80,10.07,38.99
37.42,0.041,0.228,5.744,19.983,80,10.07,38.88
37.48,-0.002,0.166,5.746,19.932,80,10.07,38.71
37.55,0.126,0.228,5.751,19.882,80,10.07,38.57
37.61,0.233,0.186,5.756,19.836,80,10.07,38.4
37.68,-0.027,0.207,5.758,19.79,80,10.07,38.19
37.74,-0.058,0.166,5.763,19.748,85,10.07,38.03
37.81,-0.055,0.373,5.767,19.708,85,10.07,37.88
37.87,-0.027,0.414,5.771,19.667,85,10.07,37.68
37.94,-0.017,0.311,5.773,19.633,85,10.07,37.38
38.0,-0.067,0.186,5.777,19.604,85,10.07,37.22
38.06,0.084,0.207,5.778,19.577,85,10.07,37.2
38.13,-0.013,0.228,5.78,19.557,85,10.07,37.18
38.19,0.016,0.207,5.783,19.547,85,10.07,37.06
38.26,0.152,0.186,5.785,19.547,85,10.07,37.06
38.32,0.221,0.228,5.787,19.55,85,10.07,37.03
38.39,-0.037,0.207,5.788,19.562,85,10.07,36.99
38.45,-0.055,0.166,5.79,19.582,84,10.07,37.0
38.52,-0.059,0.207,5.792,19.607,84,10.07,36.99
38.58,-0.073,0.207,5.792,19.638,84,10.07,36.94
38.65,-0.023,0.207,5.795,19.672,84,10.07,36.78
38.71,-0.105,0.249,5.795,19.707,84,10.07,36.75
38.77,0.13,0.166,5.795,19.739,84,10.07,36.83
38.84,-0.066,0.228,5.795,19.776,84,10.07,36.92
38.9,0.027,0.186,5.795,19.803,84,10.07,36.96
38.97,0.19,0.186,5.795,19.825,84,10.07,37.05
39.03,0.066,0.166,5.793,19.841,84,10.07,37.13
39.1,-0.099,0.249,5.792,19.852,88,10.07,37.26
39.16,-0.099,0.228,5.792,19.859,88,10.07,37.38
39.23,-0.12,0.228,5.792,19.861,88,10.07,37.53
39.29,-0.095,0.228,5.792,19.857,88,10.07,37.55
39.35,-0.13,0.186,5.792,19.85,88,10.07,37.61
39.42,0.031,0.249,5.791,19.84,88,10.07,37.83
39.48,-0.117,0.145,5.79,19.825,88,10.07,38.1
39.55,-0.059,0.228,5.79,19.808,88,10.07,38.25
39.61,0.078,0.207,5.79,19.791,88,10.07,38.4
39.68,0.138,0.145,5.788,19.774,88,10.07,38.55
39.74,-0.094,0.269,5.787,19.757,88,10.07,38.68
39.81,-0.102,0.166,5.787,19.739,88,10.07,38.81
39.87,-0.095,0.166,5.788,19.724,88,10.07,38.92
39.94,-0.082,0.207,5.788,19.712,88,10.07,38.95
40.0,-0.089,0.166,5.788,19.702,88,10.07,38.8
40.06,-0.064,0.269,5.79,19.694,88,10.07,38.75
40.13,0.044,0.228,5.788,19.688,88,10.07,38.67
40.19,-0.022,0.166,5.788,19.682,88,10.07,38.57
40.26,0.102,0.186,5.79,19.675,88,10.07,38.38
40.32,0.209,0.228,5.79,19.67,88,10.07,38.25
40.39,-0.041,0.186,5.79,19.661,88,10.07,38.08
40.45,-0.074,0.207,5.79,19.651,91,10.07,37.89
40.52,-0.073,0.207,5.79,19.643,91,10.07,37.72
40.58,-0.077,0.207,5.79,19.631,91,10.07,37.56
40.65,-0.112,0.207,5.79,19.62,91,10.07,37.26
40.71,-0.098,0.166,5.79,19.607,91,10.07,37.12
40.77,0.129,0.207,5.79,19.593,91,10.07,37.1
40.84,-0.047,0.124,5.79,19.577,91,10.07,37.08
40.9,0.043,0.124,5.791,19.559,91,10.07,37.03
40.97,0.209,0.166,5.788,19.527,91,10.07,36.99
41.03,0.023,0.228,5.79,19.524,91,10.07,36.98
41.1,-0.09,0.207,5.79,19.508,90,10.07,36.97
41.16,-0.079,0.166,5.79,19.491,90,10.07,36.97
41.23,-0.098,0.166,5.79,19.472,90,10.07,36.98
41.29,-0.049,0.186,5.79,19.452,90,10.07,36.84
41.35,-0.116,0.145,5.787,19.436,90,10.07,36.75
41.42,0.14,0.249,5.787,19.418,90,10.07,36.81
41.48,-0.13,0.207,5.787,19.404,90,10.07,36.92
41.55,-0.009,0.228,5.787,19.389,90,10.07,36.92
41.61,0.14,0.228,5.785,19.376,90,10.07,36.93
41.68,0.114,0.145,5.785,19.364,90,10.07,36.95
41.74,-0.101,0.228,5.782,19.352,89,10.07,36.98
41.81,-0.102,0.166,5.782,19.342,89,10.07,37.03
41.87,-0.121,0.269,5.781,19.333,89,10.07,37.12
41.94,-0.125,0.186,5.78,19.32,89,10.07,37.12
42.0,-0.1,0.207,5.781,19.313,89,10.07,37.07
42.06,-0.184,0.145,5.78,19.303,89,10.07,37.25
42.13,0.054,0.207,5.778,19.293,89,10.07,37.5
42.19,-0.101,0.186,5.777,19.283,89,10.07,37.67
42.26,-0.001,0.207,5.775,19.27,89,10.07,37.8
42.32,0.142,0.207,5.773,19.263,87,10.07,37.99
42.39,-0.054,0.166,5.772,19.252,87,10.07,38.16
42.45,-0.147,0.249,5.771,19.24,87,10.07,38.31
42.52,-0.137,0.207,5.77,19.228,87,10.07,38.46
42.58,-0.145,0.207,5.767,19.216,87,10.07,38.63
42.65,-0.108,0.249,5.766,19.205,87,10.07,38.62
42.71,-0.182,0.228,5.765,19.196,87,10.07,38.72
42.77,0.075,0.269,5.763,19.189,87,10.07,38.91
42.84,-0.101,0.207,5.761,19.195,87,10.07,39.09
42.9,0.012,0.124,5.76,19.187,87,10.07,39.11
42.97,0.176,0.186,5.758,19.176,87,10.07,39.07
43.03,0.016,0.166,5.757,19.167,87,10.07,39.0
43.1,-0.094,0.186,5.755,19.156,91,10.07,38.88
43.16,-0.077,0.228,5.755,19.144,91,10.07,38.74
43.23,-0.091,0.228,5.752,19.134,91,10.07,38.64
43.29,-0.059,0.29,5.752,19.124,91,10.07,38.37
43.35,-0.073,0.207,5.75,19.115,91,10.07,38.12
43.42,-0.018,0.207,5.747,19.109,91,10.07,38.03
43.48,0.051,0.207,5.746,19.099,91,10.07,37.95
43.55,0.0,0.166,5.745,19.091,91,10.07,37.8
43.61,0.124,0.249,5.745,19.084,91,10.07,37.66
43.68,0.223,0.166,5.743,19.075,91,10.07,37.54
43.74,-0.029,0.186,5.741,19.069,91,10.07,37.39
43.81,-0.053,0.186,5.74,19.061,88,10.07,37.3
43.87,-0.054,0.269,5.739,19.052,88,10.07,37.23
43.94,-0.076,0.269,5.736,19.044,88,10.07,37.1
44.0,-0.023,0.249,5.735,19.038,88,10.07,36.88
44.06,-0.088,0.166,5.733,19.029,88,10.07,36.82
44.13,0.169,0.207,5.731,19.022,88,10.07,36.88
44.19,-0.096,0.166,5.729,19.013,88,10.06,36.92
44.26,0.025,0.207,5.728,19.004,88,10.06,36.91
44.32,0.18,0.166,5.726,18.997,88,10.07,36.93
44.39,0.152,0.228,5.725,18.989,88,10.07,36.94
44.45,-0.065,0.228,5.723,18.981,86,10.07,36.93
44.52,-0.059,0.166,5.721,18.974,86,10.07,36.96
44.58,-0.071,0.228,5.72,18.966,86,10.07,36.98
44.65,-0.072,0.166,5.719,18.959,86,10.07,36.88
44.71,-0.044,0.186,5.718,18.954,86,10.07,36.73
44.77,-0.13,0.145,5.715,18.945,86,10.07,36.74
44.84,0.111,0.207,5.714,18.939,86,10.06,36.87
44.9,-0.046,0.249,5.713,18.931,86,10.05,36.93
44.97,0.044,0.124,5.71,18.926,86,10.05,36.99
45.03,0.2,0.269,5.709,18.921,86,10.05,37.1
45.1,0.007,0.207,5.708,18.916,86,10.06,37.19
45.16,-0.103,0.228,5.705,18.911,87,10.07,37.32
45.23,-0.101,0.145,5.703,18.905,87,10.07,37.47
45.29,-0.126,0.166,5.701,18.901,87,10.07,37.61
45.35,-0.122,0.186,5.7,18.898,87,10.07,37.58
45.42,-0.097,0.186,5.699,18.895,87,10.07,37.72
45.48,-0.162,0.166,5.698,18.892,87,10.07,37.96
45.55,0.058,0.145,5.695,18.889,87,10.07,38.18
45.61,-0.076,0.166,5.695,18.886,87,10.07,38.31
45.68,0.031,0.207,5.693,18.884,87,10.07,38.52
45.74,0.169,0.186,5.693,18.879,87,10.07,38.65
45.81,-0.036,0.228,5.69,18.876,87,10.07,38.75
45.87,-0.106,0.186,5.688,18.874,85,10.07,38.88
45.94,-0.091,0.228,5.686,18.869,85,10.07,39.01
46.0,-0.108,0.207,5.685,18.867,85,10.07,39.11
46.06,-0.07,0.166,5.683,18.863,85,10.07,38.96
46.13,-0.1,0.145,5.681,18.859,85,10.07,38.88
46.19,0.062,0.269,5.68,18.854,85,10.07,38.84
46.26,-0.069,0.249,5.678,18.849,85,10.07,38.77
46.32,-0.006,0.394,5.676,18.844,85,10.07,38.57
46.39,0.136,0.228,5.675,18.839,85,10.06,38.43
46.45,0.191,0.166,5.673,18.834,85,10.07,38.27
46.52,-0.054,0.124,5.671,18.829,85,10.08,38.09
46.58,-0.064,0.166,5.67,18.824,86,10.1,37.93
46.65,-0.069,0.186,5.67,18.819,86,10.12,37.74
46.71,-0.086,0.145,5.669,18.814,86,10.12,37.51
46.77,-0.032,0.207,5.666,18.809,86,10.22,37.23
46.84,-0.096,0.207,5.664,18.804,86,10.22,37.13
46.9,0.159,0.249,5.663,18.8,86,10.01,37.09
46.97,-0.105,0.207,5.66,18.793,86,10.0,37.06
47.03,0.016,0.207,5.658,18.787,86,10.17,37.01
47.1,0.169,0.207,5.658,18.785,86,10.54,37.02
47.16,0.147,0.207,5.657,18.78,86,10.52,36.99
47.23,-0.074,0.228,5.654,18.777,86,10.56,36.94
47.29,-0.07,0.228,5.653,18.775,86,10.63,36.96
47.35,-0.08,0.166,5.652,18.775,86,10.99,37.01
47.42,-0.091,0.228,5.651,18.779,86,11.010833333333334,36.92
47.48,-0.037,0.207,5.648,18.786,86,11.031666666666666,36.76
47.55,-0.116,0.166,5.648,18.799,86,11.0525,36.75
47.61,0.116,0.207,5.647,18.816,86,11.073333333333334,36.84
47.68,-0.068,0.166,5.646,18.839,86,11.094166666666666,36.93
47.74,0.023,0.186,5.644,18.868,86,11.115,36.96
47.81,0.185,0.249,5.643,18.9,86,11.135833333333334,36.99
47.87,0.051,0.166,5.641,18.935,86,11.156666666666666,37.06
47.94,-0.105,0.145,5.639,18.97,86,11.1775,37.17
48.0,-0.105,0.166,5.638,19.006,86,11.198333333333334,37.32
48.06,-0.127,0.186,5.637,19.041,86,11.219166666666666,37.52
48.13,-0.106,0.249,5.636,19.072,86,11.24,37.54
48.19,-0.134,0.186,5.636,19.101,86,11.05,37.62
48.26,-0.009,0.228,5.633,19.127,86,11.04,37.85
48.32,-0.099,0.207,5.633,19.143,86,11.13,38.12
48.39,-0.065,0.166,5.631,19.157,86,11.15,38.28
48.45,0.067,0.186,5.629,19.168,86,11.2,38.46
48.52,0.126,0.249,5.628,19.176,86,11.27,38.66
48.58,-0.108,0.228,5.626,19.181,86,11.22,38.82
48.65,-0.127,0.228,5.626,19.181,88,11.17,38.98
48.71,-0.12,0.166,5.624,19.18,88,11.17,39.12
48.77,-0.09,0.249,5.623,19.172,88,11.13,39.22
48.84,-0.126,0.166,5.622,19.167,88,11.1,39.18
48.9,0.097,0.228,5.621,19.158,88,11.05,39.28
48.97,-0.132,0.145,5.621,19.145,88,10.94,39.37
49.03,-0.018,0.186,5.618,19.129,88,10.94,39.33
49.1,0.134,0.186,5.618,19.113,88,10.91,39.2
49.16,0.154,0.186,5.617,19.097,88,10.9,39.07
49.23,-0.071,0.228,5.616,19.078,88,10.88,38.94
49.29,-0.069,0.207,5.616,19.062,94,10.87,38.79
49.35,-0.066,0.166,5.614,19.045,94,10.84,38.65
49.42,-0.06,0.166,5.613,19.028,94,10.82,38.44
49.48,-0.039,0.166,5.613,19.012,94,10.82,38.12
49.55,-0.106,0.186,5.611,18.996,94,10.78,37.96
49.61,0.152,0.166,5.609,18.981,94,10.81,37.89
49.68,-0.003,0.249,5.614,18.966,94,10.85,37.78
49.74,0.098,0.228,5.613,18.951,94,10.91,37.62
49.81,0.251,0.207,5.613,18.937,94,11.09,37.51
49.87,0.014,0.207,5.613,18.925,94,11.083846153846153,37.4
49.94,-0.049,0.166,5.611,18.912,89,11.077692307692308,37.3
50.0,-0.041,0.166,5.611,18.9,89,11.071538461538461,37.23
50.06,-0.06,0.145,5.611,18.889,89,11.065384615384616,37.17
50.13,-0.009,0.228,5.608,18.878,89,11.05923076923077,36.94
50.19,-0.072,0.186,5.608,18.869,89,11.053076923076922,36.86
50.26,0.184,0.145,5.606,18.86,89,11.046923076923077,36.91
50.32,-0.071,0.207,5.606,18.85,89,11.04076923076923,36.98
50.39,0.043,0.249,5.604,18.84,89,11.034615384615384,36.96
50.45,0.2,0.186,5.603,18.832,89,11.028461538461539,36.98
50.52,0.186,0.145,5.603,18.823,89,11.022307692307692,36.99
50.58,-0.04,0.166,5.601,18.815,89,11.016153846153847,36.99
50.65,-0.035,0.186,5.601,18.808,88,11.01,37.0
50.71,-0.047,0.166,5.599,18.801,88,11.003846153846153,37.02
50.77,-0.046,0.228,5.598,18.793,88,10.997692307692308,36.94
50.84,-0.028,0.269,5.598,18.787,88,10.991538461538461,36.77
50.9,-0.109,0.207,5.596,18.781,88,10.985384615384616,36.83
50.97,0.132,0.186,5.596,18.775,88,10.97923076923077,36.98
51.03,-0.019,0.207,5.594,18.768,88,10.973076923076922,37.09
51.1,0.074,0.207,5.593,18.762,88,10.966923076923077,37.19
51.16,0.214,0.207,5.593,18.757,88,10.96076923076923,37.34
51.23,-0.01,0.207,5.591,18.752,88,10.954615384615384,37.49
51.29,-0.093,0.186,5.591,18.747,88,10.948461538461538,37.67
51.35,-0.091,0.228,5.589,18.742,88,10.942307692307692,37.83
51.42,-0.105,0.228,5.588,18.737,88,10.936153846153847,37.98
51.48,-0.076,0.435,5.587,18.732,88,10.93,37.98
51.55,-0.161,0.228,5.586,18.73,88,10.71,38.09
51.61,0.083,0.228,5.584,18.729,88,10.35,38.33
51.68,-0.101,0.249,5.583,18.73,88,10.48,38.59
51.74,0.0,0.186,5.583,18.741,88,10.56,38.66
51.81,0.161,0.249,5.583,18.766,91,10.4,38.73
51.87,-0.012,0.186,5.581,18.793,91,10.21,38.94
51.94,-0.12,0.166,5.581,18.828,91,10.33,39.12
52.0,-0.096,0.207,5.579,18.866,91,10.24,39.18
52.06,-0.094,0.186,5.578,18.908,91,10.27,39.24
52.13,-0.061,0.228,5.578,18.951,91,10.62,39.18
52.19,-0.14,0.207,5.576,18.999,91,10.07,39.08
52.26,0.127,0.249,5.576,19.051,91,10.04,39.06
52.32,-0.043,0.207,5.573,19.099,91,10.02,38.95
52.39,0.066,0.186,5.573,19.148,91,10.11,38.76
52.45,0.23,0.166,5.573,19.195,91,10.06,38.58
52.52,0.021,0.207,5.571,19.236,91,10.08,38.41
52.58,-0.066,0.456,5.571,19.274,93,10.07,38.26
52.65,-0.053,0.269,5.569,19.304,93,10.07,38.06
52.71,-0.039,0.228,5.568,19.332,93,10.06,37.85
52.77,-0.034,0.228,5.568,19.353,93,10.06,37.55
52.84,-0.093,0.166,5.567,19.371,93,10.05,37.37
52.9,0.159,0.186,5.566,19.382,93,10.04,37.29
52.97,-0.001,0.207,5.565,19.39,93,10.04,37.23
53.03,0.104,0.186,5.564,19.393,93,10.04,37.17
53.1,0.239,0.186,5.564,19.393,93,10.04,37.15
53.16,-0.006,0.228,5.564,19.391,93,10.04,37.13
53.23,-0.063,0.207,5.564,19.391,94,10.04,37.08
53.29,-0.054,0.207,5.561,19.395,94,10.04,37.07
53.35,-0.047,0.166,5.561,19.406,94,10.04,37.06
53.42,-0.069,0.186,5.561,19.425,94,10.04,36.9
53.48,-0.069,0.207,5.561,19.455,94,10.04,36.87
53.55,0.064,0.186,5.561,19.491,94,10.04,37.0
53.61,-0.045,0.207,5.561,19.533,94,10.04,37.09
53.68,0.07,0.145,5.561,19.585,94,10.04,37.15
53.74,0.163,0.145,5.564,19.64,94,10.04,37.34
53.81,-0.084,0.207,5.564,19.703,94,10.04,37.6
53.87,-0.122,0.166,5.564,19.767,94,10.04,37.81
53.94,-0.124,0.207,5.564,19.832,94,10.02,38.02
54.0,-0.093,0.228,5.564,19.902,94,10.02,38.25
54.06,-0.165,0.186,5.564,19.962,94,10.02,38.39
54.13,0.097,0.269,5.564,20.016,94,10.02,38.63
54.19,-0.192,0.29,5.564,20.064,94,10.02,38.95
54.26,-0.049,0.166,5.564,20.102,94,10.02,39.23
54.32,0.108,0.207,5.564,20.133,96,10.02,39.41
54.39,0.038,0.166,5.566,20.159,96,10.02,39.66
54.45,-0.14,0.186,5.566,20.182,96,10.02,39.87
54.52,-0.122,0.166,5.566,20.193,96,10.02,40.02
54.58,-0.105,0.186,5.566,20.199,96,10.02,40.18
54.65,-0.095,0.228,5.568,20.199,96,10.02,40.25
54.71,-0.134,0.249,5.568,20.193,96,10.02,40.29
54.77,0.094,0.269,5.568,20.183,96,10.04,40.32
54.84,-0.043,0.166,5.568,20.172,96,10.02,40.33
54.9,0.078,0.228,5.571,20.157,96,10.02,40.26
54.97,0.201,0.186,5.571,20.147,96,10.02,40.21
55.03,-0.029,0.249,5.573,20.141,96,10.02,40.15
55.1,-0.069,0.145,5.573,20.142,97,10.02,40.05
55.16,-0.049,0.186,5.576,20.154,97,10.02,39.89
55.23,-0.046,0.207,5.576,20.179,97,10.02,39.73
55.29,-0.021,0.311,5.578,20.223,97,10.02,39.43
55.35,-0.098,0.249,5.578,20.278,97,10.02,39.23
55.42,0.191,0.228,5.578,20.336,97,10.02,39.12
55.48,0.006,0.311,5.579,20.402,97,10.02,39.01
55.55,0.107,0.228,5.581,20.474,97,10.02,38.81
55.61,0.28,0.145,5.582,20.547,97,10.02,38.66
55.68,0.045,0.249,5.583,20.62,97,10.02,38.49
55.74,-0.034,0.331,5.583,20.69,91,10.02,38.3
55.81,-0.023,0.207,5.586,20.755,91,10.02,38.11
55.87,-0.037,0.186,5.586,20.812,91,10.02,37.98
55.94,0.004,0.207,5.587,20.861,91,10.02,37.67
56.0,-0.037,0.186,5.588,20.905,91,10.02,37.53
56.06,0.154,0.352,5.588,20.934,91,10.02,37.52
56.13,0.012,0.207,5.591,20.952,91,10.02,37.53
56.19,0.052,0.269,5.592,20.965,91,10.01,37.46
56.26,0.2,0.186,5.593,20.966,91,10.01,37.42
56.32,0.244,0.207,5.597,20.957,91,10.01,37.38
56.39,-0.012,0.166,5.598,20.937,91,10.01,37.34
56.45,-0.021,0.249,5.599,20.911,88,10.01,37.33
56.52,-0.023,0.228,5.601,20.877,88,10.01,37.33
56.58,-0.038,0.166,5.602,20.833,88,10.01,37.26
56.65,-0.045,0.228,5.603,20.786,88,10.02,37.09
56.71,0.011,0.166,5.604,20.732,88,10.01,37.09
56.77,-0.053,0.228,5.606,20.675,88,10.01,37.18
56.84,0.192,0.186,5.607,20.614,88,10.01,37.21
56.9,-0.022,0.249,5.609,20.553,88,10.01,37.22
56.97,0.082,0.145,5.612,20.494,88,10.01,37.25
57.03,0.251,0.166,5.613,20.434,88,10.01,37.26
57.1,0.155,0.207,5.617,20.375,88,10.0,37.25
57.16,-0.035,0.186,5.619,20.317,79,10.01,37.29
57.23,-0.039,0.207,5.622,20.261,79,10.01,37.35
57.29,-0.057,0.207,5.623,20.208,79,10.01,37.45
57.35,-0.084,0.228,5.626,20.155,79,10.0,37.42
57.42,-0.098,0.249,5.626,20.108,79,10.0,37.48
57.48,-0.071,0.228,5.628,20.06,79,10.0,37.68
57.55,-0.079,0.166,5.628,20.015,79,10.0,37.92
57.61,-0.033,0.186,5.629,19.973,79,10.0,38.09
57.68,0.025,0.207,5.631,19.935,79,10.0,38.28
57.74,-0.031,0.166,5.633,19.896,79,10.0,38.48
57.81,0.088,0.228,5.633,19.861,79,10.0,38.66
57.87,0.186,0.186,5.634,19.827,79,10.0,38.83
57.94,-0.064,0.166,5.636,19.796,79,10.0,39.04
58.0,-0.101,0.311,5.636,19.768,74,10.0,39.25
58.06,-0.1,0.477,5.638,19.739,74,10.0,39.4
58.13,-0.113,0.414,5.638,19.712,74,10.0,39.52
58.19,-0.096,0.186,5.638,19.686,74,10.0,39.55
58.26,-0.072,0.207,5.639,19.661,74,10.0,39.67
58.32,-0.121,0.29,5.641,19.613,74,10.0,39.79
58.39,0.116,0.166,5.641,19.611,74,10.0,39.78
58.45,-0.019,0.186,5.641,19.59,74,10.0,39.68
58.52,0.101,0.186,5.641,19.569,74,10.0,39.6
58.58,0.252,0.249,5.641,19.547,74,10.0,39.46
58.65,0.007,0.124,5.641,19.527,74,10.0,39.31
58.71,-0.062,0.207,5.641,19.507,83,10.0,39.2
58.77,-0.044,0.186,5.641,19.488,83,10.0,39.05
58.84,-0.055,0.186,5.639,19.47,83,10.0,38.87
58.9,-0.067,0.145,5.638,19.453,83,10.0,38.59
58.97,-0.022,0.186,5.638,19.436,83,10.0,38.36
59.03,-0.05,0.186,5.638,19.418,83,10.0,38.22
59.1,0.116,0.249,5.637,19.404,83,10.0,38.11
59.16,0.014,0.228,5.636,19.39,83,10.0,37.91
59.23,0.03,0.124,5.636,19.377,83,9.99,37.76
59.29,0.17,0.186,5.634,19.364,83,10.0,37.66
59.35,0.246,0.145,5.633,19.35,83,10.0,37.54
59.42,-0.024,0.166,5.632,19.34,83,10.0,37.45
59.48,-0.043,0.166,5.631,19.328,79,9.99,37.42
59.55,-0.041,0.166,5.631,19.318,79,10.0,37.38
59.61,-0.06,0.186,5.628,19.312,79,9.99,37.3
59.68,-0.055,0.166,5.628,19.309,79,9.99,37.12
59.74,-0.014,0.186,5.628,19.3,79,10.0,37.09
59.81,-0.094,0.145,5.627,19.292,79,9.99,37.17
59.87,0.165,0.207,5.626,19.283,79,10.0,37.25
59.94,-0.009,0.145,5.624,19.277,79,10.0,37.24
60.0,0.085,0.249,5.623,19.272,79,10.0,37.28
60.06,0.267,0.186,5.622,19.264,79,10.0,37.3
60.13,0.076,0.249,5.621,19.258,79,10.0,37.3
60.19,-0.05,0.186,5.618,19.25,81,9.99,37.32
60.26,-0.04,0.228,5.618,19.245,81,10.0,37.32
60.32,-0.056,0.186,5.616,19.238,81,10.0,37.35
60.39,-0.072,0.186,5.614,19.231,81,10.0,37.2
60.45,-0.049,0.269,5.613,19.225,81,9.99,37.09
60.52,-0.044,0.228,5.612,19.216,81,10.0,37.12
60.58,-0.058,0.228,5.611,19.21,81,9.99,37.22
60.65,0.099,0.186,5.608,19.202,81,10.0,37.24
60.71,-0.003,0.166,5.608,19.197,81,10.0,37.29
60.77,0.1,0.207,5.606,19.191,81,10.0,37.36
60.84,0.227,0.186,5.603,19.183,81,10.0,37.39
60.9,-0.025,0.228,5.603,19.176,81,10.0,37.5
60.97,-0.084,0.207,5.601,19.17,79,10.0,37.65
61.03,-0.092,0.186,5.598,19.162,79,10.0,37.75
61.1,-0.122,0.186,5.598,19.155,79,10.0,37.81
61.16,-0.119,0.207,5.596,19.148,79,9.99,37.78
61.23,-0.098,0.166,5.594,19.141,79,9.99,37.92
61.29,-0.17,0.207,5.593,19.135,79,9.99,38.16
61.35,0.054,0.207,5.591,19.128,79,10.0,38.39
61.42,-0.092,0.166,5.589,19.121,79,9.99,38.53
61.48,0.005,0.207,5.588,19.114,79,10.0,38.72
61.55,0.151,0.166,5.587,19.106,83,10.0,38.89
61.61,-0.069,0.331,5.584,19.098,83,10.0,39.05
61.68,-0.144,0.228,5.583,19.091,83,10.0,39.23
61.74,-0.129,0.186,5.582,19.084,83,9.99,39.37
61.81,-0.139,0.145,5.581,19.076,83,10.0,39.52
61.87,-0.097,0.186,5.579,19.069,83,10.0,39.51
61.94,-0.166,0.186,5.578,19.062,83,9.99,39.54
62.0,-0.082,0.207,5.576,19.054,83,10.0,39.59
62.06,-0.061,0.352,5.576,19.047,83,10.0,39.62
62.13,0.017,0.228,5.573,19.039,83,10.0,39.55
62.19,0.196,0.207,5.573,19.033,83,10.0,39.46
62.26,0.036,0.145,5.571,19.027,83,10.0,39.33
62.32,-0.092,0.186,5.568,19.014,83,10.0,39.02
62.39,-0.073,0.124,5.569,19.013,83,9.99,39.0
62.45,-0.083,0.166,5.568,19.008,83,10.0,38.86
62.52,-0.04,0.228,5.566,19.001,83,10.0,38.55
62.58,-0.093,0.207,5.566,18.996,83,10.0,38.26
62.65,0.144,0.269,5.564,18.989,83,9.99,38.12
62.71,-0.09,0.186,5.564,18.983,83,10.0,38.04
62.77,0.004,0.186,5.561,18.979,83,9.99,37.88
62.84,0.154,0.166,5.561,18.976,83,10.0,37.74
62.9,0.174,0.166,5.561,18.969,83,9.99,37.65
62.97,-0.062,0.166,5.559,18.964,83,9.99,37.56
63.03,-0.058,0.228,5.559,18.961,83,9.99,37.48
63.1,-0.068,0.186,5.559,18.958,83,9.99,37.43
63.16,-0.04,0.166,5.556,18.954,83,9.99,37.35
63.23,-0.068,0.249,5.555,18.95,83,9.99,37.16
63.29,0.018,0.207,5.554,18.946,83,9.99,37.15
63.35,0.037,0.207,5.552,18.94,83,9.99,37.24
63.42,-0.005,0.228,5.551,18.936,83,9.99,37.3
63.48,0.124,0.186,5.551,18.931,83,9.99,37.29
63.55,0.2,0.207,5.549,18.928,83,9.99,37.3
63.61,-0.043,0.207,5.547,18.924,83,9.99,37.3
63.68,-0.068,0.166,5.546,18.921,91,9.99,37.35
63.74,-0.071,0.207,5.546,18.918,91,9.99,37.41
63.81,-0.077,0.166,5.545,18.918,91,9.99,37.39
63.87,-0.044,0.166,5.544,18.916,91,9.99,37.21
63.94,-0.128,0.207,5.541,18.918,91,9.99,37.19
64.0,0.12,0.166,5.541,18.916,91,9.99,37.23
64.06,-0.046,0.166,5.54,18.918,91,9.99,37.26
64.13,0.039,0.166,5.539,18.92,91,9.99,37.28
64.19,0.196,0.228,5.539,18.923,91,9.99,37.36
64.26,0.017,0.228,5.537,18.924,91,9.99,37.42
64.32,-0.1,0.186,5.536,18.925,89,9.97,37.5
64.39,-0.099,0.166,5.536,18.929,89,9.97,37.63
64.45,-0.129,0.186,5.534,18.93,89,9.97,37.77
64.52,-0.1,0.166,5.534,18.93,89,9.97,37.73
64.58,-0.164,0.186,5.534,18.929,89,9.99,37.85
64.65,0.086,0.166,5.531,18.928,89,10.0,38.08
64.71,-0.207,0.207,5.531,18.928,89,10.0,38.23
64.77,-0.078,0.228,5.53,18.925,89,10.0,38.41
64.84,0.073,0.186,5.529,18.924,89,10.0,38.66
64.9,0.044,0.166,5.529,18.919,89,10.0,38.88
64.97,-0.159,0.207,5.527,18.914,89,10.0,39.08
65.03,-0.152,0.207,5.526,18.909,89,10.0,39.26
65.1,-0.157,0.145,5.525,18.904,89,10.0,39.47
65.16,-0.115,0.228,5.524,18.897,89,10.01,39.53
65.23,-0.176,0.186,5.524,18.894,89,10.02,39.59
65.29,0.088,0.207,5.522,18.887,89,10.04,39.74
65.35,-0.153,0.269,5.521,18.878,89,10.04,39.88
65.42,-0.015,0.228,5.52,18.87,89,10.02,39.86
65.48,0.157,0.186,5.519,18.864,89,10.02,39.77
65.55,0.052,0.186,5.519,18.857,89,10.02,39.65
65.61,-0.101,0.207,5.517,18.849,94,10.02,39.51
65.68,-0.082,0.145,5.516,18.842,94,10.02,39.35
65.74,-0.093,0.207,5.515,18.835,94,10.02,39.23
65.81,-0.073,0.331,5.514,18.829,94,10.01,38.95
65.87,-0.085,0.186,5.514,18.822,94,10.02,38.65
65.94,-0.036,0.373,5.511,18.817,94,10.02,38.5
66.0,0.061,0.186,5.511,18.808,94,10.01,38.36
66.06,-0.014,0.145,5.509,18.802,94,10.01,38.18
66.13,0.115,0.186,5.509,18.796,94,10.0,38.01
66.19,0.219,0.186,5.509,18.79,94,9.99,37.87
66.26,-0.043,0.186,5.507,18.783,94,9.99,37.72
66.32,-0.068,0.228,5.506,18.777,88,9.99,37.62
66.39,-0.066,0.186,5.506,18.772,88,10.0,37.53
66.45,-0.085,0.228,5.504,18.767,88,10.01,37.42
66.52,-0.036,0.166,5.504,18.762,88,10.02,37.19
66.58,-0.103,0.186,5.501,18.757,88,10.02,37.14
66.65,0.156,0.249,5.501,18.75,88,10.02,37.21
66.71,-0.092,0.228,5.501,18.745,88,10.02,37.25
66.77,0.018,0.228,5.5,18.74,88,10.02,37.22
66.84,0.188,0.186,5.499,18.735,88,10.02,37.24
66.9,0.123,0.166,5.499,18.732,88,10.02,37.25
66.97,-0.08,0.166,5.497,18.727,87,10.02,37.25
67.03,-0.069,0.186,5.496,18.723,87,10.02,37.26
67.1,-0.089,0.186,5.496,18.72,87,10.02,37.3
67.16,-0.094,0.207,5.496,18.716,87,10.02,37.2
67.23,-0.044,0.228,5.494,18.713,87,10.02,37.05
67.29,-0.094,0.228,5.492,18.708,87,10.02,37.08
67.35,0.145,0.186,5.491,18.703,87,10.02,37.17
67.42,-0.105,0.186,5.489,18.695,87,10.02,37.22
67.48,0.009,0.207,5.489,18.697,87,10.02,37.23
67.55,0.162,0.249,5.489,18.693,87,10.02,37.25
67.61,0.168,0.166,5.489,18.692,87,10.02,37.26
67.68,-0.064,0.186,5.486,18.694,87,10.02,37.31
67.74,-0.071,0.186,5.486,18.695,83,10.02,37.39
67.81,-0.083,0.166,5.486,18.701,83,10.02,37.47
67.87,-0.109,0.124,5.484,18.71,83,10.02,37.47
67.94,-0.119,0.166,5.484,18.722,83,10.02,37.4
68.0,-0.071,0.207,5.481,18.737,83,10.02,37.55
68.06,-0.15,0.166,5.481,18.755,83,10.02,37.78
68.13,0.09,0.186,5.481,18.774,83,10.02,37.97
68.19,-0.102,0.207,5.48,18.796,83,10.02,38.14
68.26,0.0,0.166,5.479,18.818,83,10.02,38.33
68.32,0.167,0.269,5.479,18.839,83,10.02,38.52
68.39,0.025,0.166,5.479,18.861,83,10.02,38.68
68.45,-0.119,0.207,5.477,18.881,80,10.02,38.88
68.52,-0.106,0.166,5.477,18.898,80,10.02,39.05
68.58,-0.116,0.228,5.477,18.914,80,10.02,39.19
68.65,-0.099,0.145,5.474,18.927,80,10.02,39.2
68.71,-0.087,0.207,5.474,18.94,80,10.02,39.29
68.77,-0.092,0.207,5.474,18.949,80,10.02,39.46
68.84,0.069,0.228,5.473,18.954,80,10.02,39.63
68.9,-0.017,0.186,5.472,18.956,80,10.02,39.66
68.97,0.116,0.228,5.472,18.958,80,10.02,39.61
69.03,0.242,0.166,5.469,18.956,80,10.02,39.53
69.1,-0.002,0.124,5.469,18.951,80,10.02,39.39
69.16,-0.044,0.166,5.469,18.946,87,10.02,39.28
69.23,-0.029,0.166,5.467,18.939,87,10.02,39.16
69.29,-0.011,0.186,5.467,18.93,87,10.02,39.02
69.35,0.001,0.269,5.467,18.92,87,10.02,38.72
69.42,-0.026,0.166,5.464,18.907,87,10.02,38.54
69.48,0.015,0.249,5.463,18.896,87,10.02,38.43
69.55,0.12,0.166,5.462,18.884,87,10.02,38.31
69.61,0.041,0.228,5.462,18.856,87,10.02,37.99
69.68,0.171,0.166,5.462,18.854,87,10.02,37.97
69.74,0.287,0.228,5.462,18.843,87,10.02,37.85
69.81,0.017,0.186,5.462,18.833,87,10.02,37.7
69.87,-0.015,0.207,5.462,18.824,84,10.02,37.61
69.94,-0.012,0.145,5.46,18.819,84,10.02,37.52
70.0,-0.034,0.166,5.459,18.816,84,10.02,37.41
70.06,-0.003,0.207,5.459,18.817,84,10.02,37.18
70.13,-0.027,0.145,5.459,18.822,84,10.02,37.12
70.19,0.033,0.166,5.459,18.833,84,10.02,37.15
70.26,0.088,0.207,5.459,18.848,84,10.02,37.21
70.32,0.034,0.228,5.459,18.867,84,10.02,37.2
70.39,0.164,0.207,5.457,18.889,84,10.02,37.21
70.45,0.263,0.249,5.457,18.914,84,10.02,37.22
70.52,-0.008,0.207,5.457,18.939,84,10.02,37.21
70.58,-0.04,0.186,5.455,18.964,85,10.02,37.25
70.65,-0.039,0.249,5.454,18.988,85,10.02,37.25
70.71,-0.058,0.186,5.454,19.012,85,10.02,37.25
70.77,-0.05,0.186,5.452,19.035,85,10.02,37.05
70.84,-0.031,0.186,5.452,19.056,85,10.02,37.04
70.9,-0.115,0.207,5.452,19.073,85,10.02,37.14
70.97,0.136,0.311,5.452,19.089,85,10.02,37.27
71.03,-0.039,0.207,5.452,19.111,85,10.02,37.44
71.1,0.05,0.166,5.45,19.113,85,10.02,37.45
71.16,0.218,0.166,5.45,19.119,85,10.01,37.57
71.23,0.025,0.186,5.449,19.122,85,10.02,37.68
71.29,-0.1,0.145,5.449,19.119,81,10.02,37.87
71.35,-0.098,0.207,5.449,19.115,81,10.01,38.03
71.42,-0.119,0.166,5.447,19.108,81,10.02,38.22
71.48,-0.123,0.166,5.447,19.098,81,10.02,38.2
71.55,-0.095,0.228,5.447,19.086,81,10.01,38.35
71.61,-0.18,0.186,5.444,19.073,81,10.02,38.57
71.68,0.073,0.269,5.444,19.058,81,10.02,38.8
71.74,-0.103,0.228,5.444,19.042,81,10.02,38.94
71.81,0.003,0.145,5.444,19.026,81,10.01,39.09
71.87,0.178,0.145,5.444,19.011,84,10.01,39.22
71.94,-0.007,0.166,5.443,18.995,84,10.01,39.32
72.0,-0.112,0.249,5.442,18.978,84,10.02,39.4
72.06,-0.089,0.249,5.442,18.966,84,10.01,39.43
72.13,-0.098,0.166,5.442,18.952,84,10.01,39.4
72.19,-0.104,0.228,5.442,18.942,84,10.01,39.15
72.26,-0.048,0.186,5.439,18.934,84,10.01,38.98
72.32,-0.115,0.145,5.439,18.931,84,10.01,38.93
72.39,0.141,0.228,5.439,18.931,84,10.01,38.87
72.45,-0.076,0.29,5.439,18.936,84,10.01,38.69
72.52,0.037,0.207,5.439,18.945,84,10.01,38.56
72.58,0.218,0.186,5.439,18.959,84,10.01,38.42
72.65,0.102,0.207,5.437,18.974,84,10.01,38.23
72.71,-0.068,0.186,5.437,18.991,82,10.01,38.07
72.77,-0.058,0.145,5.437,19.007,82,10.01,37.94
72.84,-0.067,0.186,5.437,19.027,82,10.01,37.83
72.9,-0.085,0.207,5.437,19.043,82,10.01,37.59
72.97,-0.047,0.29,5.437,19.061,82,10.01,37.37
73.03,-0.076,0.29,5.434,19.073,82,10.01,37.3
73.1,0.043,0.228,5.434,19.083,82,10.01,37.31
73.16,0.003,0.228,5.433,19.09,82,10.01,37.27
73.23,-0.002,0.207,5.432,19.095,82,10.01,37.25
73.29,0.132,0.166,5.432,19.097,82,10.01,37.25
73.35,0.218,0.249,5.432,19.097,82,10.01,37.24
73.42,-0.05,0.249,5.429,19.095,82,10.01,37.23
73.48,-0.077,0.186,5.429,19.09,81,10.01,37.26
73.55,-0.077,0.249,5.428,19.085,81,10.01,37.26
73.61,-0.093,0.207,5.427,19.075,81,10.01,37.23
73.68,-0.101,0.166,5.427,19.064,81,10.01,37.08
73.74,-0.071,0.186,5.427,19.053,81,10.01,37.07
73.81,-0.076,0.186,5.427,19.039,81,10.01,37.13
73.87,-0.061,0.228,5.427,19.026,81,10.01,37.21
73.94,0.066,0.145,5.427,19.008,81,10.01,37.22
74.0,-0.026,0.207,5.424,18.995,81,10.01,37.29
74.06,0.086,0.228,5.424,18.978,81,10.01,37.36
74.13,0.207,0.166,5.422,18.961,81,10.01,37.44
74.19,-0.046,0.207,5.42,18.946,81,10.01,37.56
74.26,-0.103,0.207,5.419,18.933,76,10.01,37.72
74.32,-0.106,0.145,5.417,18.917,76,10.0,37.83
74.39,-0.132,0.186,5.417,18.904,76,10.0,37.95
74.45,-0.15,0.186,5.417,18.89,76,10.0,37.92
74.52,-0.13,0.186,5.415,18.878,76,10.0,38.08
74.58,-0.128,0.249,5.414,18.865,76,10.0,38.3
74.65,-0.123,0.186,5.412,18.853,76,10.0,38.52
74.71,0.003,0.29,5.412,18.843,76,10.0,38.66
74.77,-0.079,0.249,5.412,18.832,76,10.0,38.85
74.84,0.043,0.166,5.41,18.82,76,10.0,39.02
74.9,0.175,0.269,5.409,18.813,77,10.0,39.15
74.97,-0.064,0.207,5.409,18.803,77,10.0,39.31
75.03,-0.109,0.207,5.409,18.796,77,10.0,39.47
75.1,-0.092,0.228,5.407,18.787,77,10.0,39.55
75.16,-0.103,0.145,5.407,18.778,77,10.0,39.5
75.23,-0.097,0.145,5.407,18.77,77,10.0,39.26
75.29,-0.053,0.207,5.405,18.763,77,10.0,39.16
75.35,-0.121,0.166,5.404,18.755,77,10.0,39.08
75.42,0.137,0.228,5.404,18.748,77,10.0,39.02
75.48,-0.04,0.186,5.404,18.741,77,10.0,38.89
75.55,0.065,0.124,5.402,18.733,77,10.0,38.77
75.61,0.251,0.249,5.402,18.727,77,10.0,38.62
75.68,0.075,0.186,5.399,18.72,77,10.0,38.44
75.74,-0.057,0.145,5.399,18.714,81,10.0,38.29
75.81,-0.043,0.166,5.399,18.706,81,10.0,38.15
75.87,-0.056,0.186,5.398,18.7,81,10.0,38.02
75.94,-0.068,0.186,5.399,18.694,81,10.0,37.75
76.0,-0.036,0.249,5.399,18.688,81,10.0,37.53
76.06,-0.05,0.207,5.399,18.683,81,10.0,37.47
76.13,0.001,0.166,5.397,18.678,81,10.0,37.44
76.19,0.077,0.228,5.397,18.673,81,10.0,37.37
76.26,0.011,0.186,5.397,18.668,81,10.0,37.32
76.32,0.136,0.186,5.394,18.663,81,10.0,37.32
76.39,0.252,0.207,5.394,18.659,81,10.0,37.28
76.45,-0.018,0.186,5.394,18.654,81,10.0,37.26
76.52,-0.057,0.166,5.392,18.65,80,10.0,37.29
76.58,-0.05,0.186,5.392,18.645,80,10.0,37.27
76.65,-0.066,0.228,5.392,18.642,80,10.0,37.26
76.71,-0.075,0.166,5.39,18.638,80,10.0,37.1
76.77,-0.023,0.228,5.39,18.635,80,10.0,37.07
76.84,-0.099,0.207,5.39,18.632,80,10.0,37.11
76.9,0.138,0.311,5.387,18.628,80,10.0,37.2
76.97,-0.049,0.166,5.387,18.626,80,10.0,37.2
77.03,0.049,0.207,5.387,18.623,80,10.0,37.24
77.1,0.226,0.166,5.385,18.621,80,10.0,37.25
77.16,0.098,0.186,5.385,18.618,80,10.0,37.24
77.23,-0.067,0.145,5.383,18.617,81,10.0,37.26
77.29,-0.061,0.166,5.382,18.617,81,10.0,37.3
77.35,-0.075,0.186,5.382,18.615,81,10.0,37.38
77.42,-0.091,0.228,5.38,18.615,81,10.0,37.3
77.48,-0.045,0.186,5.38,18.613,81,10.0,37.27
77.55,-0.097,0.207,5.378,18.612,81,10.0,37.42
77.61,0.141,0.228,5.377,18.612,81,10.0,37.62
77.68,-0.124,0.166,5.376,18.61,81,10.0,37.74
77.74,-0.009,0.269,5.375,18.608,81,10.0,37.9
77.81,0.14,0.207,5.375,18.606,81,10.0,38.07
77.87,0.149,0.186,5.372,18.603,81,10.0,38.22
77.94,-0.086,0.249,5.372,18.601,81,10.0,38.4
78.0,-0.097,0.145,5.372,18.598,81,10.0,38.56
78.06,-0.105,0.249,5.371,18.595,81,10.0,38.74
78.13,-0.12,0.207,5.37,18.591,81,10.0,38.82
78.19,-0.084,0.166,5.37,18.587,81,10.0,38.85
78.26,-0.155,0.166,5.368,18.583,81,10.0,39.04
78.32,0.087,0.228,5.367,18.578,81,10.0,39.25
78.39,-0.11,0.186,5.367,18.573,81,10.0,39.44
78.45,0.001,0.249,5.366,18.571,81,10.0,39.57
78.52,0.183,0.207,5.365,18.566,81,10.0,39.79
78.58,0.031,0.186,5.365,18.561,81,10.0,39.98
78.65,-0.104,0.186,5.365,18.556,87,9.99,40.06
78.71,-0.086,0.186,5.365,18.551,87,9.99,40.15
78.77,-0.091,0.186,5.363,18.546,87,10.0,40.18
78.84,-0.042,0.228,5.362,18.541,87,10.0,39.99
78.9,-0.099,0.228,5.362,18.539,87,10.0,39.79
78.97,0.179,0.228,5.362,18.534,87,10.0,39.68
79.03,-0.102,0.124,5.362,18.529,87,10.0,39.63
79.1,0.045,0.269,5.361,18.524,87,10.0,39.5
79.16,0.226,0.186,5.36,18.52,87,10.0,39.39
79.23,0.174,0.166,5.36,18.516,87,9.99,39.27
79.29,-0.026,0.207,5.36,18.511,87,10.0,39.11
79.35,-0.015,0.207,5.357,18.509,90,10.0,38.94
79.42,-0.016,0.269,5.357,18.506,90,10.0,38.82
79.48,0.009,0.228,5.357,18.503,90,10.0,38.56
79.55,-0.003,0.166,5.355,18.499,90,10.0,38.24
79.61,0.016,0.228,5.355,18.496,90,10.0,38.11
79.68,0.168,0.249,5.355,18.491,90,10.0,38.04
79.74,0.056,0.186,5.352,18.488,90,10.0,37.89
79.81,0.177,0.145,5.352,18.484,90,10.0,37.74
79.87,0.297,0.145,5.352,18.479,90,10.0,37.66
79.94,0.029,0.186,5.35,18.475,90,10.0,37.54
80.0,-0.007,0.29,5.35,18.474,89,9.99,37.45
80.06,-0.004,0.207,5.35,18.469,89,10.0,37.4
80.13,-0.018,0.166,5.347,18.464,89,10.0,37.32
80.19,-0.034,0.166,5.347,18.461,89,9.99,37.11
80.26,-0.058,0.166,5.345,18.459,89,10.0,37.06
80.32,0.222,0.269,5.345,18.454,89,10.0,37.09
80.39,-0.029,0.207,5.343,18.449,89,10.0,37.15
80.45,0.078,0.269,5.343,18.446,89,9.99,37.15
80.52,0.251,0.145,5.342,18.438,89,10.0,37.19
80.58,0.184,0.311,5.341,18.437,89,9.99,37.19
80.65,-0.022,0.207,5.34,18.433,89,9.99,37.2
80.71,-0.014,0.207,5.34,18.429,87,9.99,37.22
80.77,-0.024,0.207,5.34,18.424,87,10.0,37.24
80.84,-0.043,0.186,5.337,18.422,87,10.0,37.16
80.9,-0.007,0.249,5.337,18.418,87,10.0,36.99
80.97,-0.038,0.186,5.337,18.414,87,9.99,37.02
81.03,0.062,0.269,5.335,18.409,87,10.0,37.12
81.1,0.035,0.207,5.335,18.406,87,10.0,37.16
81.16,0.028,0.228,5.335,18.403,87,9.99,37.17
81.23,0.158,0.186,5.333,18.399,87,9.99,37.2
81.29,0.243,0.186,5.332,18.394,87,10.0,37.21
81.35,-0.015,0.207,5.332,18.392,87,9.99,37.21
81.42,-0.042,0.186,5.332,18.388,82,9.99,37.24
81.48,-0.043,0.186,5.332,18.384,82,9.99,37.24
81.55,-0.067,0.228,5.33,18.381,82,10.0,37.24
81.61,-0.078,0.166,5.33,18.378,82,10.0,37.08
81.68,-0.03,0.207,5.327,18.374,82,9.99,37.16
81.74,-0.106,0.207,5.327,18.369,82,9.99,37.32
81.81,-0.087,0.207,5.326,18.367,82,10.0,37.49
81.87,-0.056,0.186,5.325,18.363,82,9.99,37.6
81.94,0.005,0.166,5.325,18.361,82,9.99,37.74
82.0,0.164,0.311,5.322,18.357,82,9.99,37.89
82.06,0.074,0.207,5.322,18.354,82,9.99,38.04
82.13,-0.111,0.207,5.32,18.347,82,10.0,38.38
82.19,-0.111,0.207,5.32,18.347,82,9.99,38.4
82.26,-0.128,0.29,5.32,18.345,82,9.99,38.56
82.32,-0.152,0.228,5.32,18.342,82,9.99,38.59
82.39,-0.166,0.228,5.317,18.34,82,9.99,38.68
82.45,-0.172,0.166,5.317,18.337,82,10.0,38.87
82.52,0.064,0.186,5.316,18.334,82,9.99,39.13
82.58,-0.187,0.166,5.315,18.331,82,9.99,39.31
82.65,-0.07,0.145,5.315,18.329,82,9.99,39.47
82.71,0.075,0.124,5.313,18.324,82,9.99,39.74
82.77,0.115,0.228,5.312,18.324,82,9.99,39.76
82.84,-0.121,0.166,5.312,18.321,82,9.99,39.89
82.9,-0.132,0.166,5.312,18.319,82,9.99,40.07
82.97,-0.123,0.207,5.311,18.317,82,9.99,40.18
83.03,-0.129,0.228,5.31,18.315,82,9.99,40.21
83.1,-0.083,0.207,5.308,18.312,82,9.99,40.14
83.16,-0.147,0.166,5.307,18.311,82,9.99,40.15
83.23,0.102,0.207,5.307,18.307,82,9.99,40.15
83.29,-0.087,0.207,5.306,18.305,82,9.99,40.11
83.35,0.035,0.166,5.305,18.302,82,9.99,40.01
83.42,0.219,0.29,5.305,18.3,82,9.99,39.92
83.48,0.07,0.166,5.304,18.296,82,9.99,39.79
83.55,-0.071,0.124,5.304,18.294,87,9.99,39.66
83.61,-0.055,0.249,5.303,18.29,87,9.99,39.55
83.68,-0.068,0.186,5.303,18.287,87,9.99,39.46
83.74,-0.078,0.228,5.303,18.285,87,10.0,39.2
83.81,-0.017,0.166,5.301,18.282,87,10.0,38.96
83.87,-0.081,0.228,5.3,18.28,87,9.99,38.84
83.94,0.206,0.228,5.3,18.277,87,9.99,38.74
84.0,-0.054,0.186,5.3,18.275,87,9.99,38.6
84.06,0.066,0.166,5.298,18.273,87,9.99,38.45
84.13,0.249,0.249,5.298,18.27,87,9.99,38.31
84.19,0.175,0.249,5.298,18.268,87,9.99,38.13
84.26,-0.025,0.166,5.296,18.264,83,9.99,37.98
84.32,-0.013,0.228,5.295,18.262,83,9.99,37.85
84.39,-0.02,0.228,5.295,18.26,83,9.99,37.74
84.45,-0.035,0.311,5.295,18.258,83,9.99,37.5
84.52,-0.008,0.166,5.293,18.257,83,9.99,37.28
84.58,-0.011,0.331,5.293,18.255,83,9.99,37.23
84.65,-0.01,0.207,5.291,18.254,83,9.99,37.25
84.71,0.154,0.228,5.29,18.254,83,10.0,37.22
84.77,0.041,0.207,5.29,18.253,83,9.99,37.21
84.84,0.152,0.166,5.289,18.253,83,9.99,37.22
84.9,0.29,0.186,5.288,18.254,83,9.99,37.21
84.97,0.023,0.166,5.288,18.254,83,9.99,37.21
85.03,-0.027,0.207,5.288,18.254,80,10.0,37.25
85.1,-0.025,0.186,5.286,18.255,80,9.99,37.25
85.16,-0.044,0.186,5.285,18.257,80,9.99,37.23
85.23,-0.055,0.207,5.285,18.257,80,9.99,37.07
85.29,-0.011,0.166,5.285,18.258,80,9.99,37.04
85.35,-0.049,0.186,5.283,18.257,80,9.99,37.1
85.42,0.115,0.207,5.283,18.257,80,9.99,37.18
85.48,-0.028,0.166,5.283,18.254,80,9.99,37.19
85.55,0.022,0.124,5.283,18.253,80,9.99,37.21
85.61,0.152,0.207,5.283,18.25,80,9.99,37.24
85.68,0.223,0.228,5.28,18.249,80,9.99,37.24
85.74,-0.038,0.145,5.28,18.247,80,9.99,37.29
85.81,-0.065,0.186,5.28,18.243,78,9.99,37.35
85.87,-0.074,0.145,5.28,18.239,78,9.99,37.4
85.94,-0.096,0.166,5.278,18.235,78,9.99,37.44
86.0,-0.109,0.145,5.278,18.23,78,9.99,37.36
86.06,-0.101,0.166,5.275,18.228,78,9.99,37.5
86.13,-0.077,0.207,5.275,18.223,78,9.99,37.69
86.19,-0.151,0.207,5.275,18.218,78,9.99,37.89
86.26,0.084,0.228,5.273,18.213,78,9.99,38.02
86.32,-0.073,0.186,5.273,18.209,78,9.99,38.22
86.39,0.023,0.228,5.271,18.203,78,9.99,38.39
86.45,0.18,0.186,5.27,18.2,75,9.99,38.55
86.52,-0.019,0.207,5.27,18.198,75,9.99,38.74
86.58,-0.123,0.186,5.27,18.194,75,9.99,38.96
86.65,-0.118,0.166,5.269,18.192,75,9.99,39.11
86.71,-0.14,0.228,5.268,18.188,75,9.99,39.27
86.77,-0.144,0.207,5.268,18.186,75,9.99,39.29
86.84,-0.108,0.166,5.268,18.182,75,9.99,39.39
86.9,-0.18,0.249,5.265,18.18,75,9.99,39.58
86.97,0.081,0.186,5.265,18.178,75,9.99,39.78
87.03,-0.082,0.186,5.265,18.176,75,9.99,39.89
87.1,0.034,0.124,5.265,18.173,75,9.99,39.99
87.16,0.204,0.207,5.263,18.171,75,9.99,40.06
87.23,0.007,0.228,5.263,18.167,75,9.99,40.0
87.29,-0.098,0.166,5.263,18.165,83,9.99,39.95
87.35,-0.083,0.166,5.263,18.161,83,9.99,39.85
87.42,-0.092,0.228,5.261,18.158,83,9.99,39.75
87.48,-0.088,0.269,5.26,18.156,83,9.99,39.5
87.55,-0.045,0.145,5.258,18.153,83,9.99,39.32
87.61,-0.119,0.331,5.258,18.151,83,9.99,39.26
87.68,-0.005,0.601,5.258,18.148,83,9.99,39.19
87.74,-0.004,0.166,5.258,18.143,83,9.99,39.08
87.81,0.074,0.166,5.258,18.141,83,9.99,38.98
87.87,0.259,0.207,5.256,18.138,83,9.99,38.86
87.94,0.075,0.166,5.255,18.136,83,9.99,38.69
88.0,-0.051,0.228,5.255,18.132,83,9.99,38.44
88.06,-0.038,0.207,5.254,18.132,64,9.99,38.43
88.13,-0.051,0.207,5.253,18.131,64,9.99,38.3
88.19,-0.037,0.207,5.253,18.13,64,9.99,38.0
88.26,-0.017,0.228,5.253,18.13,64,9.99,37.79
88.32,-0.087,0.207,5.253,18.13,64,9.99,37.71
88.39,0.188,0.228,5.253,18.13,64,9.99,37.69
88.45,0.019,0.29,5.25,18.13,64,9.99,37.6
88.52,0.12,0.186,5.25,18.13,64,9.99,37.52
88.58,0.29,0.166,5.25,18.13,64,9.99,37.47
88.65,0.056,0.145,5.25,18.13,64,9.99,37.4
88.71,-0.029,0.228,5.25,18.13,64,9.99,37.37
88.77,-0.017,0.166,5.248,18.128,64,9.99,37.34
88.84,-0.03,0.124,5.248,18.127,64,9.99,37.33
88.9,0.018,0.145,5.248,18.126,64,9.99,37.17
88.97,-0.052,0.228,5.248,18.126,64,9.99,37.09
89.03,0.211,0.249,5.246,18.123,64,9.99,37.13
89.1,-0.042,0.207,5.245,18.121,64,9.99,37.22
89.16,0.073,0.186,5.245,18.12,64,9.99,37.24
89.23,0.245,0.207,5.245,18.118,64,9.99,37.26
89.29,0.177,0.269,5.244,18.116,64,9.99,37.29
89.35,-0.028,0.228,5.243,18.115,64,9.99,37.28
89.42,-0.027,0.249,5.243,18.112,88,9.99,37.31
89.48,-0.037,0.186,5.243,18.11,88,9.99,37.37
89.55,0.003,0.228,5.243,18.108,88,9.99,37.33
89.61,-0.07,0.207,5.243,18.107,88,9.99,37.27
89.68,0.192,0.311,5.243,18.106,88,9.99,37.39
89.74,-0.083,0.207,5.241,18.103,88,9.99,37.58
89.81,0.025,0.166,5.24,18.102,88,9.99,37.72
89.87,0.184,0.124,5.24,18.102,88,9.99,37.85
89.94,0.115,0.166,5.238,18.102,88,9.99,38.03
90.0,-0.091,0.186,5.238,18.103,93,9.99,38.2
90.06,-0.094,0.145,5.238,18.106,93,9.99,38.35
90.13,-0.095,0.186,5.236,18.11,93,9.99,38.54
90.19,-0.093,0.228,5.235,18.113,93,9.99,38.65
90.26,-0.177,0.207,5.235,18.118,93,9.99,38.72
90.32,0.068,0.249,5.235,18.126,93,9.99,38.92
90.39,-0.097,0.166,5.234,18.131,93,9.99,39.19
90.45,0.001,0.186,5.233,18.137,93,9.99,39.38
90.52,0.149,0.186,5.233,18.144,97,9.99,39.51
90.58,-0.074,0.228,5.233,18.153,97,9.99,39.69
90.65,-0.154,0.228,5.231,18.162,97,9.99,39.82
90.71,-0.143,0.166,5.23,18.172,97,9.99,39.93
90.77,-0.106,0.166,5.23,18.181,97,9.99,40.07
90.84,0.12,0.269,5.229,18.189,97,9.99,40.04
90.9,0.071,0.207,5.228,18.196,97,9.99,40.02
90.97,-0.197,0.207,5.228,18.205,97,9.99,40.04
91.03,-0.051,0.207,5.226,18.213,97,9.99,40.07
91.1,0.116,0.228,5.225,18.216,97,9.99,39.97
91.16,0.055,0.186,5.224,18.222,97,9.99,39.83
91.23,-0.13,0.249,5.223,18.222,97,9.99,39.81
91.29,-0.119,0.186,5.223,18.224,97,9.99,39.68
91.35,-0.116,0.207,5.223,18.224,97,9.99,39.57
91.42,-0.073,0.166,5.223,18.224,97,9.99,39.4
91.48,-0.137,0.166,5.22,18.222,97,9.99,39.16
91.55,0.141,0.186,5.22,18.22,97,9.99,39.08
91.61,-0.125,0.166,5.22,18.218,97,9.99,39.06
91.68,0.0,0.186,5.22,18.213,97,9.99,38.97
91.74,0.184,0.228,5.218,18.21,97,9.99,38.85
91.81,0.113,0.145,5.218,18.203,97,9.99,38.76
91.87,-0.078,0.124,5.218,18.198,93,9.99,38.61
91.94,-0.066,0.186,5.215,18.193,93,9.99,38.46
92.0,-0.071,0.186,5.218,18.186,93,9.99,38.34
92.06,-0.083,0.145,5.215,18.181,93,9.99,38.07
92.13,-0.025,0.166,5.215,18.176,93,9.99,37.8
92.19,-0.085,0.166,5.215,18.167,93,9.99,37.69
92.26,0.201,0.269,5.215,18.159,93,9.99,37.65
92.32,-0.071,0.228,5.215,18.153,93,9.99,37.54
92.39,0.048,0.207,5.213,18.147,93,9.99,37.46
92.45,0.227,0.207,5.213,18.141,93,9.99,37.43
92.52,0.188,0.207,5.213,18.133,93,9.99,37.37
92.58,-0.029,0.186,5.212,18.127,93,9.99,37.35
92.65,-0.025,0.249,5.211,18.121,84,9.99,37.34
92.71,-0.033,0.207,5.211,18.114,84,9.99,37.35
92.77,-0.05,0.186,5.211,18.108,84,9.99,37.23
92.84,-0.055,0.207,5.209,18.103,84,9.99,37.08
92.9,-0.053,0.207,5.208,18.096,84,10.0,37.1
92.97,-0.049,0.249,5.208,18.089,84,9.99,37.19
93.03,-0.044,0.166,5.207,18.084,84,9.99,37.21
93.1,-0.025,0.186,5.206,18.079,84,10.0,37.22
93.16,-0.013,0.207,5.206,18.071,84,9.99,37.25
93.23,-0.01,0.207,5.206,18.066,84,10.0,37.27
93.29,0.213,0.228,5.203,18.061,84,9.99,37.29
93.35,0.061,0.145,5.204,18.056,84,9.99,37.3
93.42,0.157,0.166,5.203,18.051,84,9.99,37.32
93.48,0.32,0.311,5.203,18.046,84,9.99,37.34
93.55,0.079,0.186,5.202,18.041,84,9.99,37.39
93.61,-0.009,0.228,5.201,18.036,60,9.99,37.47
93.68,-0.015,0.207,5.201,18.031,60,9.99,37.53
93.74,-0.036,0.166,5.198,18.026,60,9.99,37.55
93.81,-0.061,0.166,5.198,18.021,60,9.99,37.45
93.87,-0.074,0.166,5.198,18.016,60,9.99,37.58
93.94,-0.081,0.186,5.197,18.011,60,9.99,37.8
94.0,-0.081,0.186,5.196,18.008,60,9.99,38.0
94.06,-0.051,0.228,5.196,18.004,60,9.99,38.14
94.13,-0.088,0.166,5.196,18.001,60,9.99,38.33
94.19,0.174,0.228,5.197,17.997,60,9.99,38.5
94.26,-0.054,0.228,5.196,17.992,60,9.99,38.65
94.32,0.053,0.186,5.194,17.988,60,9.99,38.82
94.39,0.227,0.145,5.194,17.986,60,9.99,39.02
94.45,0.13,0.228,5.193,17.982,60,9.99,39.21
94.52,-0.077,0.269,5.193,17.978,64,9.99,39.4
94.58,-0.079,0.186,5.191,17.974,64,9.99,39.53
94.65,-0.083,0.228,5.191,17.971,64,9.99,39.69
94.71,-0.102,0.207,5.191,17.968,64,9.99,39.67
94.77,-0.104,0.186,5.189,17.964,64,9.99,39.69
94.84,-0.1,0.166,5.188,17.959,64,10.0,39.79
94.9,-0.06,0.207,5.188,17.954,64,9.99,39.88
94.97,-0.089,0.186,5.187,17.953,64,9.99,39.89
95.03,0.187,0.249,5.186,17.951,64,9.99,39.84
95.1,-0.074,0.186,5.186,17.948,64,10.0,39.77
95.16,0.062,0.186,5.186,17.944,64,9.99,39.67
95.23,0.249,0.186,5.183,17.942,64,9.99,39.56
95.29,0.181,0.228,5.183,17.939,64,9.99,39.51
95.35,-0.041,0.207,5.183,17.936,71,9.99,39.46
95.42,-0.04,0.269,5.183,17.934,71,10.0,39.33
95.48,-0.035,0.269,5.181,17.932,71,9.99,39.23
95.55,-0.049,0.228,5.181,17.928,71,10.0,39.02
95.61,-0.054,0.207,5.181,17.926,71,10.0,38.75
95.68,-0.052,0.228,5.181,17.922,71,9.99,38.62
95.74,-0.046,0.186,5.181,17.92,71,10.0,38.51
95.81,-0.01,0.249,5.181,17.916,71,10.0,38.37
95.87,-0.029,0.228,5.181,17.914,71,10.0,38.22
95.94,0.26,0.269,5.181,17.911,71,10.0,38.12
96.0,0.0,0.145,5.181,17.907,71,10.0,37.98
96.06,0.106,0.166,5.181,17.905,71,9.99,37.84
96.13,0.29,0.145,5.181,17.902,71,10.0,37.77
96.19,0.24,0.228,5.178,17.899,71,10.0,37.7
96.26,0.0,0.186,5.179,17.896,71,9.99,37.63
96.32,-0.002,0.207,5.178,17.892,66,10.0,37.56
96.39,-0.005,0.145,5.177,17.89,66,10.0,37.53
96.45,-0.022,0.166,5.176,17.886,66,10.0,37.38
96.52,-0.031,0.166,5.176,17.882,66,10.0,37.2
96.58,-0.034,0.186,5.173,17.877,66,10.0,37.18
96.65,-0.028,0.145,5.173,17.875,66,10.0,37.23
96.71,-0.001,0.207,5.173,17.872,66,10.0,37.26
96.77,-0.047,0.186,5.172,17.869,66,9.99,37.26
96.84,0.229,0.166,5.171,17.866,66,9.99,37.3
96.9,0.038,0.166,5.171,17.862,66,10.0,37.3
96.97,0.124,0.311,5.169,17.859,66,9.99,37.3
97.03,0.319,0.249,5.168,17.857,66,9.99,37.31
97.1,0.14,0.207,5.168,17.855,66,10.0,37.33
97.16,-0.024,0.145,5.168,17.852,67,10.0,37.37
97.23,-0.021,0.207,5.168,17.85,67,9.99,37.35
97.29,-0.033,0.166,5.166,17.846,67,9.99,37.38
97.35,-0.053,0.166,5.166,17.844,67,10.0,37.22
97.42,-0.064,0.186,5.166,17.841,67,10.0,37.12
97.48,-0.069,0.207,5.163,17.836,67,9.99,37.14
97.55,-0.049,0.186,5.163,17.833,67,9.99,37.28
97.61,-0.06,0.166,5.162,17.83,67,9.99,37.37
97.68,0.16,0.207,5.161,17.828,67,9.99,37.45
97.74,-0.044,0.186,5.161,17.825,67,9.99,37.57
97.81,0.023,0.186,5.161,17.823,67,9.99,37.67
97.87,0.159,0.207,5.159,17.82,67,10.0,37.79
97.94,0.237,0.207,5.158,17.819,67,10.0,37.96
98.0,-0.041,0.228,5.158,17.817,67,9.99,38.14
98.06,-0.077,0.186,5.157,17.815,68,9.99,38.28
98.13,-0.081,0.228,5.156,17.814,68,10.0,38.43
98.19,-0.1,0.186,5.156,17.813,68,10.0,38.53
98.26,-0.115,0.166,5.156,17.812,68,10.0,38.55
98.32,-0.092,0.145,5.154,17.809,68,10.0,38.74
98.39,-0.112,0.228,5.153,17.808,68,10.0,38.98
98.45,0.166,0.311,5.153,17.807,68,10.0,39.24
98.52,-0.144,0.186,5.152,17.805,68,10.0,39.38
98.58,-0.001,0.29,5.152,17.803,68,10.0,39.56
98.65,0.161,0.207,5.151,17.802,68,10.0,39.7
98.71,0.195,0.166,5.151,17.799,68,10.0,39.83
98.77,-0.063,0.207,5.149,17.797,68,10.0,39.97
98.84,-0.078,0.249,5.148,17.794,78,10.0,40.1
98.9,-0.069,0.186,5.148,17.793,78,10.0,40.11
98.97,-0.077,0.186,5.148,17.79,78,10.0,39.97
99.03,-0.032,0.166,5.146,17.789,78,10.0,39.76
99.1,-0.101,0.166,5.146,17.785,78,10.0,39.67
99.16,0.158,0.207,5.146,17.783,78,10.0,39.63
99.23,-0.037,0.145,5.146,17.782,78,10.0,39.56
99.29,0.075,0.186,5.144,17.779,78,10.0,39.48
99.35,0.274,0.207,5.143,17.778,78,10.0,39.38
99.42,0.126,0.166,5.143,17.775,78,10.0,39.27
99.48,-0.035,0.166,5.143,17.772,86,10.0,39.14
99.55,-0.022,0.145,5.142,17.769,86,10.0,39.01
99.61,-0.029,0.207,5.141,17.767,86,10.0,38.9
99.68,-0.019,0.186,5.141,17.764,86,10.0,38.61
99.74,0.0,0.228,5.141,17.762,86,10.0,38.36
99.81,-0.068,0.249,5.141,17.758,86,10.0,38.23
99.87,0.209,0.186,5.139,17.755,86,10.01,38.17
99.94,0.034,0.249,5.138,17.754,86,10.01,38.04
100.0,0.132,0.228,5.138,17.752,86,10.01,37.94
100.06,0.316,0.249,5.137,17.752,86,10.01,37.85
100.13,0.076,0.145,5.136,17.748,86,10.01,37.73
100.19,-0.022,0.228,5.137,17.745,86,10.0,37.63
100.26,-0.016,0.186,5.138,17.744,86,10.0,37.54
100.32,-0.031,0.186,5.138,17.742,86,10.0,37.48
100.39,-0.011,0.166,5.137,17.74,86,10.0,37.27
100.45,-0.018,0.186,5.136,17.737,86,10.0,37.18
100.52,-0.035,0.228,5.136,17.733,86,10.0,37.19
100.58,0.15,0.145,5.136,17.731,86,10.0,37.28
100.65,0.029,0.166,5.136,17.728,86,10.0,37.3
100.71,0.139,0.145,5.136,17.726,86,10.01,37.31
100.77,0.296,0.166,5.136,17.725,86,10.01,37.31
100.84,0.031,0.145,5.136,17.721,86,10.0,37.3
100.9,-0.032,0.228,5.133,17.717,85,10.0,37.36
100.97,-0.031,0.166,5.133,17.716,85,10.01,37.35
101.03,-0.049,0.249,5.133,17.713,85,10.02,37.33
101.1,-0.036,0.207,5.133,17.711,85,10.02,37.17
101.16,-0.026,0.207,5.133,17.708,85,10.01,37.14
101.23,-0.091,0.249,5.133,17.703,85,10.0,37.16
101.29,0.137,0.207,5.132,17.701,85,10.0,37.26
101.35,-0.01,1.243,5.131,17.698,85,10.0,37.31
101.42,0.08,0.394,5.131,17.696,85,9.99,37.4
101.48,0.238,0.228,5.131,17.693,85,9.99,37.47
101.55,0.011,0.186,5.131,17.69,85,9.99,37.53
101.61,-0.08,0.186,5.128,17.687,83,9.99,37.65
101.68,-0.083,0.207,5.128,17.683,83,10.0,37.75
101.74,-0.11,0.186,5.127,17.681,83,10.0,37.94
101.81,-0.13,0.207,5.126,17.677,83,10.0,38.01
101.87,-0.089,0.207,5.126,17.676,83,10.0,38.12
101.94,-0.147,0.166,5.125,17.672,83,10.0,38.3
102.0,0.108,0.207,5.124,17.67,83,10.0,38.49
102.06,-0.191,0.207,5.124,17.667,83,10.0,38.57
102.13,-0.059,0.207,5.124,17.666,83,10.0,38.72
102.19,0.083,0.228,5.121,17.663,80,10.0,38.87
102.26,0.106,0.166,5.121,17.66,80,10.01,38.98
102.32,-0.125,0.207,5.121,17.657,80,10.01,39.15
102.39,-0.133,0.166,5.12,17.655,80,10.01,39.31
102.45,-0.137,0.228,5.119,17.653,80,10.01,39.43
102.52,-0.154,0.269,5.119,17.65,80,10.01,39.45
102.58,-0.102,0.207,5.117,17.648,80,10.01,39.42
102.65,-0.161,0.207,5.116,17.645,80,10.01,39.51
102.71,0.1,0.249,5.116,17.641,80,10.01,39.5
102.77,-0.156,0.186,5.116,17.64,80,10.01,39.44
102.84,-0.019,0.145,5.115,17.638,80,10.01,39.37
102.9,0.152,0.186,5.114,17.635,85,10.0,39.27
102.97,0.094,0.166,5.114,17.633,85,10.0,39.17
103.03,-0.103,0.186,5.114,17.63,85,10.0,39.07
103.1,-0.094,0.145,5.111,17.628,85,10.0,38.96
103.16,-0.098,0.186,5.111,17.626,85,10.0,38.86
103.23,-0.115,0.166,5.111,17.624,85,10.0,38.62
103.29,-0.089,0.207,5.111,17.621,85,10.01,38.34
103.35,-0.075,0.166,5.109,17.619,85,10.01,38.26
103.42,-0.102,0.166,5.109,17.616,85,10.01,38.16
103.48,0.124,0.186,5.109,17.614,85,10.01,38.05
103.55,-0.019,0.166,5.109,17.611,85,10.01,37.94
103.61,0.084,0.186,5.106,17.61,85,10.01,37.85
103.68,0.246,0.166,5.106,17.608,85,10.01,37.73
103.74,0.011,0.228,5.106,17.606,85,10.01,37.63
103.81,-0.058,0.166,5.105,17.603,80,10.01,37.59
103.87,-0.052,0.207,5.104,17.603,80,10.01,37.53
103.94,-0.073,0.186,5.104,17.6,80,10.01,37.47
104.0,-0.085,0.145,5.102,17.598,80,10.01,37.25
104.06,-0.067,0.145,5.101,17.594,80,10.01,37.19
104.13,-0.033,0.145,5.101,17.593,80,10.01,37.22
104.19,-0.107,0.104,5.1,17.589,80,10.01,37.31
104.26,0.148,0.228,5.099,17.586,80,10.01,37.32
104.32,-0.012,0.145,5.099,17.585,80,10.01,37.34
104.39,0.078,0.186,5.099,17.583,80,10.01,37.35
104.45,0.252,0.166,5.096,17.58,80,10.01,37.35
104.52,0.069,0.228,5.096,17.579,80,10.01,37.35
104.58,-0.049,0.228,5.096,17.578,76,10.01,37.38
104.65,-0.042,0.166,5.096,17.574,76,10.01,37.37
104.71,-0.061,0.145,5.096,17.573,76,10.01,37.38
104.77,-0.079,0.186,5.094,17.57,76,10.01,37.21
104.84,-0.044,0.228,5.094,17.569,76,10.01,37.14
104.9,-0.049,0.166,5.094,17.566,76,10.01,37.17
104.97,-0.024,0.186,5.091,17.563,76,10.01,37.28
105.03,0.069,0.207,5.091,17.562,76,10.01,37.3
105.1,0.0,0.186,5.091,17.559,76,10.01,37.32
105.16,0.111,0.186,5.091,17.557,76,10.01,37.35
105.23,0.238,0.166,5.091,17.553,76,10.01,37.35
105.29,-0.012,0.145,5.089,17.552,76,10.01,37.4
105.35,-0.067,0.311,5.089,17.549,79,10.01,37.48
105.42,-0.072,0.207,5.089,17.548,79,10.01,37.53
105.48,-0.099,0.249,5.089,17.546,79,10.01,37.58
105.55,-0.112,0.145,5.089,17.543,79,10.01,37.49
105.61,-0.069,0.207,5.087,17.542,79,10.0,37.61
105.68,-0.148,0.166,5.086,17.538,79,10.01,37.81
105.74,0.087,0.228,5.086,17.536,79,10.01,38.01
105.81,-0.118,0.207,5.085,17.536,79,10.01,38.14
105.87,-0.014,0.186,5.084,17.533,79,10.01,38.33
105.94,0.15,0.207,5.084,17.531,81,10.01,38.49
106.0,0.045,0.269,5.082,17.529,81,10.01,38.66
106.06,-0.126,0.207,5.081,17.528,81,10.01,38.84
106.13,-0.124,0.228,5.081,17.528,81,10.01,39.02
106.19,-0.143,0.145,5.081,17.526,81,10.01,39.18
106.26,-0.163,0.186,5.079,17.526,81,10.01,39.2
106.32,-0.169,0.166,5.079,17.524,81,10.01,39.29
106.39,0.103,0.207,5.079,17.522,81,10.01,39.48
106.45,-0.197,0.145,5.079,17.521,81,10.01,39.7
106.52,-0.053,0.186,5.079,17.518,81,10.01,39.83
106.58,0.103,0.166,5.077,17.516,89,10.01,39.99
106.65,0.128,0.186,5.077,17.516,89,10.01,40.0
106.71,-0.104,0.249,5.076,17.514,89,10.01,39.97
106.77,-0.11,0.207,5.076,17.512,89,10.01,39.89
106.84,-0.106,0.207,5.076,17.511,89,10.01,39.8
106.9,-0.096,0.207,5.076,17.509,89,10.01,39.64
106.97,-0.09,0.207,5.076,17.508,89,10.01,39.38
107.03,-0.106,0.166,5.076,17.506,89,10.01,39.29
107.1,0.073,0.207,5.076,17.503,89,10.01,39.24
107.16,-0.034,0.145,5.075,17.502,89,10.01,39.16
107.23,0.08,0.186,5.074,17.501,89,10.01,39.0
107.29,0.231,0.228,5.074,17.499,89,10.01,38.89
107.35,-0.017,0.249,5.071,17.497,89,10.01,38.73
107.42,-0.07,0.207,5.071,17.496,90,10.01,38.55
107.48,-0.061,0.166,5.071,17.493,90,10.01,38.38
107.55,-0.061,0.124,5.071,17.491,90,10.01,38.21
107.61,-0.036,0.166,5.07,17.491,90,10.01,37.88
107.68,-0.121,0.373,5.069,17.488,90,10.01,37.71
107.74,0.159,0.207,5.069,17.486,90,10.01,37.64
107.81,-0.024,0.228,5.067,17.483,90,10.01,37.6
107.87,0.064,0.249,5.066,17.483,90,10.01,37.51
107.94,0.243,0.207,5.066,17.482,90,10.01,37.46
108.0,0.038,0.269,5.066,17.481,90,10.01,37.43
108.06,-0.073,0.228,5.065,17.48,90,10.01,37.4
108.13,-0.062,0.207,5.064,17.479,90,10.01,37.36
108.19,-0.076,0.186,5.064,17.479,90,10.01,37.37
108.26,-0.035,0.249,5.062,17.477,90,10.01,37.22
108.32,-0.09,0.186,5.061,17.479,90,10.01,37.13
108.39,0.139,0.228,5.061,17.477,90,10.01,37.18
108.45,-0.081,0.186,5.061,17.479,90,10.01,37.27
108.52,0.006,0.228,5.061,17.479,90,10.01,37.29
108.58,0.15,0.269,5.061,17.48,90,10.01,37.31
108.65,0.193,0.207,5.06,17.481,90,10.01,37.32
108.71,-0.059,0.186,5.059,17.482,90,10.01,37.34
108.77,-0.074,0.249,5.059,17.484,88,10.01,37.4
108.84,-0.084,0.145,5.059,17.487,88,10.01,37.46
108.9,-0.108,0.228,5.057,17.489,88,10.01,37.48
108.97,-0.088,0.166,5.056,17.492,88,10.01,37.41
109.03,-0.092,0.207,5.056,17.493,88,10.01,37.56
109.1,-0.098,0.207,5.056,17.496,88,10.01,37.79
109.16,0.044,0.166,5.054,17.497,88,10.01,37.97
109.23,-0.059,0.186,5.054,17.498,88,10.01,38.12
109.29,0.051,0.166,5.054,17.499,88,10.01,38.34
109.35,0.176,0.207,5.054,17.501,88,10.01,38.51
109.42,-0.067,0.228,5.051,17.499,88,10.01,38.7
109.48,-0.13,0.249,5.051,17.498,82,10.01,38.91
109.55,-0.13,0.166,5.051,17.497,82,10.01,39.09
109.61,-0.151,0.207,5.05,17.496,82,10.01,39.2
109.68,-0.111,0.186,5.049,17.493,82,10.01,39.22
109.74,-0.17,0.269,5.049,17.491,82,10.01,39.41
109.81,0.102,0.311,5.047,17.487,82,10.0,39.62
109.87,-0.197,0.207,5.046,17.484,82,10.0,39.83
109.94,-0.039,0.166,5.046,17.481,82,10.0,39.96
110.0,0.129,0.124,5.046,17.477,82,10.0,40.11
110.06,0.105,0.145,5.046,17.474,82,10.0,40.18
110.13,-0.108,0.207,5.045,17.47,87,10.0,40.19
110.19,-0.102,0.186,5.044,17.467,87,10.0,40.14
110.26,-0.1,0.186,5.044,17.464,87,10.0,40.06
110.32,-0.114,0.145,5.044,17.46,87,10.0,39.86
110.39,-0.061,0.311,5.044,17.456,87,10.0,39.62
110.45,-0.104,0.269,5.044,17.455,87,10.0,39.55
110.52,0.165,0.269,5.044,17.451,87,10.0,39.51
110.58,-0.12,0.228,5.041,17.451,87,10.0,39.39
110.65,0.015,0.249,5.041,17.451,87,10.0,39.27
110.71,0.178,0.249,5.041,17.455,87,10.0,39.16
110.77,0.209,0.166,5.039,17.462,87,10.0,39.01
110.84,-0.038,0.228,5.039,17.476,87,9.99,38.86
110.9,-0.044,0.228,5.039,17.493,83,10.0,38.72
110.97,-0.049,0.207,5.037,17.518,83,10.0,38.59
111.03,-0.067,0.186,5.037,17.547,83,10.0,38.32
111.1,-0.039,0.228,5.037,17.581,83,10.0,38.01
111.16,-0.032,0.186,5.035,17.62,83,10.0,37.89
111.23,-0.07,0.311,5.034,17.662,83,10.0,37.82
111.29,0.158,0.186,5.034,17.706,83,10.0,37.73
111.35,0.006,0.166,5.033,17.751,83,10.0,37.63
111.42,0.107,0.186,5.033,17.798,83,10.01,37.58
111.48,0.272,0.228,5.032,17.844,83,10.02,37.5
111.55,0.021,0.207,5.032,17.889,83,10.01,37.43
111.61,-0.054,0.186,5.032,17.928,81,10.02,37.43
111.68,-0.048,0.249,5.032,17.968,81,10.01,37.4
111.74,-0.066,0.311,5.032,18.005,81,10.02,37.38
111.81,-0.08,0.373,5.029,18.039,81,10.04,37.2
111.87,-0.059,0.331,5.029,18.07,81,10.04,37.15
111.94,-0.051,0.166,5.029,18.096,81,10.04,37.18
112.0,-0.096,0.228,5.028,18.122,81,10.05,37.25
112.06,0.112,0.186,5.027,18.141,81,10.07,37.26
112.13,-0.03,0.186,5.029,18.162,81,10.08,37.33
112.19,0.064,0.145,5.027,18.172,81,10.08,37.4
112.26,0.222,0.186,5.027,18.178,81,10.1,37.49
112.32,-0.018,0.145,5.027,18.183,81,10.12,37.61
112.39,-0.106,0.207,5.024,18.185,77,10.11,37.78
112.45,-0.106,0.249,5.024,18.181,77,10.12,37.91
112.52,-0.13,0.207,5.024,18.178,77,10.13,38.07
112.58,-0.146,0.249,5.024,18.171,77,10.15,38.07
112.65,-0.149,0.186,5.023,18.162,77,10.17,38.24
112.71,-0.105,0.269,5.022,18.152,77,10.18,38.47
112.77,-0.176,0.207,5.022,18.141,77,10.19,38.71
112.84,0.058,0.249,5.022,18.128,77,10.19,38.86
112.9,-0.146,0.207,5.02,18.113,77,10.19,39.04
112.97,-0.038,0.331,5.019,18.098,77,10.19,39.21
113.03,0.136,0.207,5.019,18.084,75,10.19,39.36
113.1,0.027,0.186,5.018,18.069,75,10.19,39.53
113.16,-0.143,0.186,5.019,18.054,75,10.22,39.74
113.23,-0.134,0.186,5.017,18.039,75,10.24,39.88
113.29,-0.135,0.186,5.017,18.026,75,10.26,39.99
113.35,-0.146,0.145,5.017,18.012,75,10.26,40.03
113.42,-0.091,0.145,5.017,18.0,75,10.27,40.06
113.48,-0.149,0.249,5.015,17.989,75,10.27,40.1
113.55,0.102,0.269,5.014,17.975,75,10.27,40.07
113.61,-0.144,0.166,5.014,17.965,75,10.28,39.96
113.68,-0.008,0.145,5.014,17.955,75,10.28,39.92
113.74,0.175,0.228,5.013,17.948,75,10.28,39.85
113.81,0.101,0.207,5.012,17.938,75,10.28,39.67
113.87,-0.091,0.207,5.012,17.929,83,10.28,39.53
113.94,-0.077,0.207,5.012,17.922,83,10.28,39.48
114.0,-0.075,0.145,5.01,17.916,83,10.28,39.39
114.06,-0.087,0.145,5.009,17.91,83,10.28,39.15
114.13,-0.049,0.269,5.009,17.905,83,10.28,38.89
114.19,-0.051,0.269,5.009,17.902,83,10.28,38.79
114.26,-0.1,0.228,5.009,17.899,83,10.28,38.72
114.32,0.183,0.228,5.007,17.9,83,10.28,38.59
114.39,0.001,0.166,5.007,17.905,83,10.28,38.43
114.45,0.096,0.186,5.005,17.922,83,10.28,38.18
114.52,0.287,0.249,5.005,17.922,83,10.26,38.16
114.58,0.078,0.207,5.004,17.932,83,10.26,38.01
114.65,-0.035,0.228,5.004,17.943,79,10.24,37.94
114.71,-0.025,0.186,5.004,17.954,79,10.22,37.81
114.77,-0.039,0.186,5.003,17.964,79,10.19,37.68
114.84,-0.052,0.414,5.002,17.973,79,10.17,37.43
114.9,-0.007,0.249,5.002,17.984,79,10.16,37.31
114.97,-0.049,0.207,5.002,17.989,79,10.13,37.3
115.03,0.16,0.249,5.002,17.994,79,10.13,37.33
115.1,-0.034,0.228,4.999,17.998,79,10.12,37.31
115.16,0.04,0.166,4.999,17.998,79,10.12,37.31
115.23,0.184,0.207,4.999,17.998,79,10.11,37.35
115.29,0.254,0.207,4.997,17.996,79,10.1,37.32
115.35,-0.015,0.145,4.997,17.992,79,10.08,37.32
115.42,-0.036,0.269,4.997,17.987,80,10.08,37.36
115.48,-0.056,0.228,4.997,17.978,80,10.06,37.38
115.55,-0.066,0.207,4.994,17.969,80,10.07,37.32
115.61,-0.075,0.207,4.994,17.958,80,10.07,37.15
115.68,-0.022,0.207,4.994,17.944,80,10.05,37.16
115.74,-0.08,0.186,4.994,17.932,80,10.05,37.29
115.81,0.171,0.166,4.992,17.906,80,10.05,37.56
115.87,-0.111,0.207,4.992,17.903,80,10.05,37.58
115.94,0.01,0.186,4.992,17.89,80,10.05,37.72
116.0,0.161,0.269,4.992,17.875,80,10.04,37.89
116.06,0.169,0.166,4.989,17.862,80,10.04,38.08
116.13,-0.068,0.186,4.989,17.848,80,10.02,38.29
116.19,-0.077,0.207,4.989,17.836,78,10.02,38.52
116.26,-0.104,0.186,4.989,17.824,78,10.04,38.73
116.32,-0.105,0.186,4.987,17.811,78,10.04,38.84
116.39,-0.065,0.186,4.987,17.8,78,10.05,38.94
116.45,-0.126,0.228,4.987,17.788,78,10.05,39.16
116.52,0.124,0.228,4.984,17.776,78,10.06,39.43
116.58,-0.152,0.186,4.984,17.758,78,10.06,39.74
116.65,-0.007,0.207,4.983,17.755,78,10.06,39.76
116.71,0.157,0.207,4.984,17.746,78,10.07,39.93
116.77,0.119,0.228,4.984,17.737,78,10.07,40.1
116.84,-0.09,0.207,4.984,17.728,84,10.07,40.24
116.9,-0.09,0.207,4.983,17.721,84,10.07,40.42
116.97,-0.094,0.186,4.982,17.713,84,10.07,40.56
117.03,-0.083,0.145,4.982,17.706,84,10.07,40.56
117.1,-0.072,0.228,4.982,17.698,84,10.07,40.5
117.16,-0.094,0.228,4.979,17.692,84,10.07,40.48
117.23,0.079,0.228,4.979,17.683,84,10.06,40.47
117.29,-0.022,0.207,4.979,17.676,84,10.07,40.39
117.35,0.094,0.186,4.978,17.669,84,10.07,40.29
117.42,0.238,0.186,4.977,17.663,84,10.07,40.23
117.48,-0.002,0.145,4.977,17.658,84,10.07,40.14
117.55,-0.063,0.186,4.975,17.654,88,10.07,40.03
117.61,-0.052,0.269,4.974,17.653,88,10.07,39.94
117.68,-0.065,0.249,4.974,17.65,88,10.07,39.84
117.74,-0.049,0.186,4.974,17.655,88,10.07,39.58
117.81,-0.025,0.186,4.974,17.662,88,10.07,39.42
117.87,-0.084,0.207,4.974,17.673,88,10.07,39.31
117.94,0.182,0.186,4.973,17.69,88,10.06,39.2
118.0,0.025,0.166,4.972,17.71,88,10.07,39.05
118.06,0.125,0.207,4.972,17.734,88,10.06,38.93
118.13,0.304,0.186,4.972,17.761,88,10.07,38.77
118.19,0.076,0.166,4.969,17.795,88,10.06,38.61
118.26,-0.013,0.207,4.969,17.831,84,10.07,38.47
118.32,-0.006,0.228,4.969,17.867,84,10.07,38.3
118.39,-0.022,0.373,4.969,17.906,84,10.07,38.12
118.45,0.005,0.29,4.969,17.946,84,10.06,37.78
118.52,-0.009,0.207,4.969,17.987,84,10.06,37.59
118.58,0.009,0.228,4.967,18.024,84,10.06,37.54
118.65,0.137,0.186,4.967,18.059,84,10.06,37.53
118.71,0.038,0.186,4.967,18.091,84,10.07,37.48
118.77,0.147,0.207,4.964,18.119,84,10.06,37.47
118.84,0.267,0.207,4.964,18.145,84,10.06,37.47
118.9,0.002,0.186,4.964,18.165,84,10.06,37.52
118.97,-0.047,0.228,4.964,18.181,85,10.07,37.64
119.03,-0.054,0.166,4.963,18.19,85,10.06,37.8
119.1,-0.057,0.249,4.962,18.196,85,10.07,37.99
119.16,-0.045,0.228,4.96,18.2,85,10.06,38.03
119.23,-0.057,0.249,4.96,18.2,85,10.07,38.28
119.29,-0.079,0.166,4.962,18.193,85,10.06,38.6
119.35,0.084,0.207,4.962,18.184,85,10.07,38.92
119.42,-0.009,0.228,4.962,18.158,85,10.07,39.48
119.48,0.096,0.207,4.96,18.156,85,10.07,39.52
119.55,0.237,0.29,4.959,18.14,85,10.07,39.81
119.61,0.0,0.249,4.959,18.122,85,10.07,40.08
119.68,-0.075,0.269,4.959,18.105,84,10.06,40.41
119.74,-0.073,0.228,4.959,18.085,84,10.06,40.68
119.81,-0.081,0.352,4.958,18.065,84,10.07,40.88
119.87,-0.054,0.331,4.957,18.048,84,10.07,40.85
119.94,-0.129,0.207,4.957,18.03,84,10.07,40.91
120.0,0.039,0.29,4.957,18.01,84,10.07,40.87
120.06,-0.086,0.186,4.957,17.992,84,10.07,40.79
120.13,0.036,0.207,4.957,17.973,84,10.07,40.69
120.19,0.21,0.228,4.957,17.954,84,10.07,40.64
120.26,0.066,0.166,4.954,17.937,84,10.06,40.64
120.32,-0.054,0.207,4.955,17.921,89,10.07,40.69
120.39,-0.046,0.186,4.954,17.905,89,10.06,40.81
120.45,-0.069,0.166,4.954,17.89,89,10.07,41.02
120.52,-0.077,0.249,4.954,17.875,89,10.07,41.12
120.58,-0.045,0.269,4.954,17.86,89,10.07,41.23
120.65,-0.129,0.207,4.954,17.847,89,10.07,41.4
120.71,0.162,0.166,4.954,17.835,89,10.06,41.52
120.77,-0.043,0.207,4.954,17.821,89,10.07,41.52
120.84,0.047,0.311,4.957,17.811,89,10.07,41.55
120.9,0.232,0.145,4.957,17.799,89,10.07,41.57
120.97,0.054,0.207,4.957,17.791,89,10.07,41.56
121.03,-0.068,0.207,4.959,17.784,85,10.07,41.54
121.1,-0.056,0.186,4.957,17.778,85,10.07,41.77
121.16,-0.038,0.228,4.957,17.773,85,10.06,41.86
121.23,-0.033,0.269,4.957,17.769,85,10.06,41.78
121.29,-0.099,0.207,4.957,17.772,85,10.06,41.71
121.35,0.137,0.249,4.957,17.775,85,10.06,41.7
121.42,-0.065,0.207,4.955,17.781,85,10.07,41.81
121.48,-0.006,0.166,4.954,17.807,85,10.07,42.01
121.55,0.138,0.186,4.955,17.808,85,10.07,42.04
121.61,0.195,0.186,4.954,17.824,85,10.07,42.23
121.68,-0.055,0.124,4.954,17.842,85,10.07,42.32
121.74,-0.068,0.331,4.954,17.862,88,10.07,42.3
121.81,-0.063,0.207,4.954,17.884,88,10.07,42.09
121.87,-0.045,0.186,4.955,17.904,88,10.07,41.77
121.94,-0.046,0.249,4.954,17.926,88,10.08,41.34
122.0,-0.076,0.186,4.954,17.946,88,10.07,41.09
122.06,0.128,0.166,4.953,17.962,88,10.07,40.85
122.13,0.009,0.145,4.952,17.974,88,10.07,40.48
122.19,0.125,0.249,4.951,17.985,88,10.06,40.07
122.26,0.267,0.228,4.95,17.993,88,10.06,39.68
122.32,0.014,0.186,4.95,17.997,88,10.07,39.3
122.39,-0.039,0.145,4.95,18.001,90,10.07,38.97
122.45,-0.033,0.228,4.947,18.001,90,10.07,38.69
122.52,-0.042,0.29,4.947,17.998,90,10.07,38.44
122.58,0.013,0.186,4.947,17.993,90,10.07,38.18
122.65,-0.073,0.311,4.945,17.989,90,10.07,38.14
122.71,0.168,0.249,4.945,17.98,90,10.07,38.25
122.77,-0.037,0.269,4.945,17.969,90,10.07,38.38
122.84,0.067,0.249,4.945,17.958,90,10.07,38.32
122.9,0.241,0.249,4.945,17.948,90,10.07,38.31
122.97,0.134,0.207,4.943,17.938,90,10.07,38.39
123.03,-0.033,0.186,4.942,17.925,88,10.07,38.47
123.1,-0.027,0.186,4.942,17.916,88,10.07,38.36
123.16,-0.045,0.207,4.942,17.906,88,10.07,38.13
123.23,0.002,0.228,4.942,17.896,88,10.07,37.96
123.29,-0.074,0.249,4.942,17.886,88,10.07,37.94
123.35,0.182,0.228,4.942,17.878,88,10.07,38.09
123.42,-0.092,0.186,4.94,17.868,88,10.07,38.33
123.48,0.024,0.207,4.94,17.861,88,10.07,38.44
123.55,0.17,0.124,4.94,17.853,88,10.07,38.42
123.61,0.163,0.186,4.94,17.846,88,10.07,38.32
123.68,-0.059,0.207,4.94,17.838,91,10.07,38.19
123.74,-0.06,0.145,4.94,17.831,91,10.07,38.03
123.81,-0.075,0.207,4.937,17.824,91,10.07,37.9
123.87,-0.032,0.207,4.937,17.816,91,10.07,37.8
123.94,-0.107,0.228,4.937,17.809,91,10.07,37.63
124.0,0.116,0.331,4.937,17.803,91,10.07,37.62
124.06,-0.117,0.477,4.937,17.796,91,10.07,37.7
124.13,0.026,0.249,4.935,17.788,91,10.07,37.72
124.19,0.201,0.228,4.936,17.781,91,10.07,37.69
124.26,0.148,0.207,4.935,17.773,91,10.07,37.64
124.32,-0.047,0.186,4.937,17.768,93,10.07,37.63
124.39,-0.034,0.166,4.937,17.759,93,10.07,37.45
124.45,-0.043,0.207,4.937,17.751,93,10.07,37.11
124.52,-0.013,0.124,4.937,17.744,93,10.07,36.79
124.58,-0.113,0.228,4.936,17.738,93,10.07,36.58
124.65,0.071,0.207,4.935,17.731,93,10.07,36.6
124.71,-0.035,0.207,4.935,17.723,93,10.07,36.81
124.77,0.059,0.228,4.935,17.716,93,10.07,37.1
124.84,0.213,0.166,4.935,17.711,93,10.07,37.41
124.9,0.058,0.186,4.932,17.703,93,10.07,37.55
124.97,-0.062,0.228,4.932,17.698,96,10.07,37.6
125.03,-0.06,0.249,4.932,17.693,96,10.07,37.61
125.1,-0.038,0.207,4.931,17.691,96,10.07,37.68
125.16,-0.075,0.186,4.93,17.686,96,10.07,37.62
125.23,0.013,0.228,4.93,17.682,96,10.07,37.42
125.29,-0.031,0.207,4.928,17.678,96,10.07,37.4
125.35,-0.002,0.186,4.927,17.676,96,10.07,37.49
125.42,0.123,0.207,4.927,17.673,96,10.07,37.5
125.48,0.19,0.186,4.927,17.67,96,10.07,37.47
125.55,-0.047,0.186,4.927,17.667,96,10.07,37.49
125.61,-0.067,0.29,4.927,17.665,96,10.07,37.52
125.68,-0.056,0.269,4.927,17.662,96,10.06,37.49
125.74,-0.035,0.228,4.927,17.66,96,10.07,37.54
125.81,-0.127,0.186,4.927,17.657,96,10.07,37.39
125.87,0.081,0.249,4.927,17.655,96,10.07,37.37
125.94,-0.057,0.228,4.925,17.65,96,10.07,37.53
126.0,0.029,0.145,4.925,17.65,96,10.07,37.53
126.06,0.169,0.186,4.925,17.649,96,10.07,37.52
126.13,0.004,0.186,4.922,17.646,96,10.07,37.61
126.19,-0.111,0.166,4.921,17.644,97,10.07,37.75
126.26,-0.121,0.166,4.92,17.643,97,10.07,37.89
126.32,-0.095,0.207,4.92,17.643,97,10.07,38.08
126.39,-0.174,0.228,4.92,17.641,97,10.07,38.2
126.45,0.029,0.269,4.92,17.64,97,10.07,38.39
126.52,-0.232,0.29,4.917,17.64,97,10.07,38.65
126.58,-0.085,0.186,4.917,17.639,97,10.07,39.01
126.65,0.046,0.186,4.917,17.638,100,10.07,39.24
126.71,0.002,0.166,4.917,17.639,100,10.07,39.47
126.77,-0.169,0.186,4.917,17.64,100,10.07,39.72
126.84,-0.159,0.207,4.917,17.641,100,10.07,39.96
126.9,-0.118,0.228,4.916,17.644,100,10.07,40.11
126.97,-0.183,0.145,4.915,17.643,100,10.07,40.32
127.03,0.048,0.269,4.915,17.639,100,10.07,40.42
127.1,-0.209,0.207,4.915,17.636,100,10.07,40.52
127.16,-0.045,0.207,4.912,17.635,100,10.07,40.55
127.23,0.1,0.166,4.912,17.634,103,10.07,40.48
127.29,0.053,0.145,4.912,17.629,103,10.07,40.37
127.35,-0.107,0.228,4.911,17.624,103,10.07,40.26
127.42,-0.092,0.186,4.91,17.619,103,10.07,40.09
127.48,-0.062,0.228,4.91,17.614,103,10.07,39.94
127.55,-0.097,0.311,4.91,17.609,103,10.07,39.73
127.61,0.042,0.228,4.908,17.604,103,10.07,39.42
127.68,-0.016,0.166,4.907,17.597,103,10.07,39.26
127.74,-0.019,0.249,4.907,17.591,103,10.07,39.15
127.81,0.106,0.249,4.907,17.586,103,10.07,38.98
127.87,0.159,0.29,4.905,17.581,103,10.07,38.82
127.94,-0.057,0.207,4.905,17.576,103,10.07,38.65
128.0,-0.061,0.269,4.905,17.571,100,10.07,38.45
128.06,-0.049,0.269,4.905,17.567,100,10.07,38.21
128.13,-0.036,0.249,4.905,17.562,100,10.07,38.01
128.19,-0.13,0.228,4.902,17.557,100,10.07,37.7
128.26,0.168,0.145,4.902,17.552,100,10.07,37.57
128.32,-0.045,0.166,4.902,17.542,100,10.07,37.52
128.39,0.042,0.207,4.902,17.542,100,10.07,37.52
128.45,0.189,0.207,4.902,17.537,100,10.07,37.43
128.52,0.014,0.166,4.902,17.532,100,10.07,37.32
128.58,-0.074,0.186,4.902,17.529,99,10.07,37.26
128.65,-0.071,0.145,4.902,17.526,99,10.07,37.24
128.71,-0.069,0.186,4.9,17.523,99,10.07,37.25
128.77,-0.049,0.207,4.9,17.519,99,10.07,37.15
128.84,-0.137,0.207,4.9,17.517,99,10.07,37.12
128.9,0.142,0.228,4.9,17.512,99,10.07,37.21
128.97,-0.035,0.207,4.898,17.508,99,10.07,37.34
129.03,0.056,0.145,4.897,17.506,99,10.07,37.39
129.1,0.201,0.186,4.897,17.503,99,10.07,37.44
129.16,0.002,0.207,4.895,17.501,99,10.07,37.47
129.23,-0.074,0.207,4.893,17.498,93,10.07,37.5
129.29,-0.073,0.186,4.897,17.494,93,10.07,37.49
129.35,-0.099,0.166,4.9,17.493,93,10.07,37.52
129.42,-0.054,0.249,4.9,17.491,93,10.07,37.35
129.48,-0.135,0.186,4.898,17.491,93,10.07,37.28
129.55,0.099,0.228,4.897,17.489,93,10.07,37.34
129.61,-0.115,0.186,4.897,17.488,93,10.07,37.51
129.68,-0.02,0.166,4.895,17.491,93,10.07,37.62
129.74,0.124,0.166,4.895,17.491,90,10.07,37.79
129.81,0.019,0.207,4.893,17.493,90,10.07,37.98
129.87,-0.134,0.269,4.892,17.494,90,10.07,38.19
129.94,-0.131,0.269,4.892,17.499,90,10.07,38.42
130.0,-0.154,0.166,4.892,17.503,90,10.07,38.67
130.06,-0.121,0.249,4.891,17.507,90,10.07,38.79
130.13,-0.202,0.166,4.89,17.514,90,10.07,38.93
130.19,0.015,0.228,4.89,17.519,90,10.07,39.21
130.26,-0.168,0.228,4.89,17.525,90,10.07,39.52
130.32,-0.047,0.166,4.888,17.534,90,10.07,39.71
130.39,0.112,0.124,4.887,17.543,94,10.07,39.88
130.45,-0.021,0.228,4.887,17.553,94,10.07,40.05
130.52,-0.148,0.186,4.886,17.563,94,10.07,40.21
130.58,-0.126,0.207,4.885,17.576,94,10.07,40.33
130.65,-0.135,0.186,4.885,17.593,94,10.07,40.46
130.71,-0.095,0.269,4.885,17.614,94,10.07,40.35
130.77,-0.169,0.249,4.885,17.64,94,10.07,40.21
130.84,0.086,0.29,4.883,17.673,94,10.07,40.17
130.9,-0.095,0.249,4.882,17.71,94,10.07,40.16
130.97,0.021,0.311,4.882,17.754,94,10.07,40.03
131.03,0.18,0.207,4.882,17.807,94,10.07,39.93
131.1,0.014,0.207,4.88,17.867,94,10.07,39.83
131.16,-0.089,0.166,4.88,17.937,93,10.07,39.69
131.23,-0.071,0.29,4.88,18.02,93,10.07,39.54
131.29,-0.087,0.207,4.878,18.113,93,10.07,39.4
131.35,-0.034,0.145,4.877,18.214,93,10.07,39.07
131.42,-0.102,0.124,4.877,18.329,93,10.07,38.8
131.48,0.161,0.249,4.877,18.448,93,10.07,38.67
131.55,-0.078,0.207,4.877,18.57,93,10.07,38.55
131.61,0.031,0.207,4.875,18.69,93,10.07,38.35
131.68,0.206,0.207,4.875,18.817,93,10.07,38.19
131.74,0.106,0.145,4.875,18.952,93,10.07,38.03
131.81,-0.072,0.249,4.875,19.088,91,10.07,37.89
131.87,-0.063,0.311,4.872,19.217,91,10.07,37.76
131.94,-0.075,0.249,4.872,19.346,91,10.07,37.68
132.0,-0.065,0.207,4.872,19.474,91,10.07,37.48
132.06,-0.058,0.228,4.872,19.6,91,10.07,37.3
132.13,-0.107,0.228,4.871,19.719,91,10.07,37.29
132.19,0.133,0.228,4.87,19.824,91,10.07,37.36
132.26,-0.023,0.186,4.87,19.926,91,10.07,37.36
132.32,0.08,0.249,4.87,20.013,91,10.06,37.37
132.39,0.209,0.145,4.87,20.096,91,10.07,37.4
132.45,-0.047,0.249,4.87,20.176,91,10.07,37.4
132.52,-0.113,0.186,4.87,20.247,87,10.07,37.43
132.58,-0.145,0.249,4.871,20.315,87,10.07,37.45
132.65,-0.157,0.29,4.872,20.381,87,10.07,37.54
132.71,-0.171,0.228,4.872,20.448,87,10.06,37.5
132.77,-0.129,0.207,4.875,20.51,87,10.07,37.66
132.84,-0.189,0.228,4.877,20.566,87,10.07,37.94
132.9,0.063,0.228,4.881,20.659,87,10.07,38.39
132.97,-0.228,0.228,4.882,20.665,87,10.07,38.42
133.03,-0.102,0.228,4.886,20.71,87,10.07,38.64
133.1,0.046,0.186,4.888,20.755,80,10.07,38.87
133.16,0.023,0.228,4.891,20.782,80,10.07,39.09
133.23,-0.197,0.207,4.896,20.801,80,10.07,39.33
133.29,-0.201,0.207,4.898,20.808,80,10.07,39.58
133.35,-0.208,0.207,4.904,20.808,80,10.07,39.76
133.42,-0.225,0.228,4.911,20.799,80,10.07,39.8
133.48,-0.185,0.186,4.916,20.785,80,10.07,39.86
133.55,-0.201,0.249,4.921,20.767,80,10.07,40.04
133.61,-0.043,0.166,4.926,20.738,80,10.07,40.24
133.68,-0.158,0.228,4.931,20.699,80,10.07,40.34
133.74,-0.097,0.186,4.939,20.655,80,10.07,40.39
133.81,0.056,0.124,4.943,20.609,80,10.07,40.35
133.87,0.119,0.166,4.948,20.552,80,10.07,40.26
133.94,-0.121,0.207,4.953,20.495,80,10.07,40.14
134.0,-0.136,0.166,4.958,20.433,82,10.07,40.06
134.06,-0.124,0.228,4.963,20.368,82,10.07,39.96
134.13,-0.138,0.124,4.97,20.304,82,10.07,39.78
134.19,-0.137,0.249,4.975,20.24,82,10.07,39.51
134.26,-0.081,0.269,4.981,20.178,82,10.07,39.38
134.32,-0.12,0.207,4.988,20.121,82,10.07,39.28
134.39,0.155,0.166,4.994,20.075,82,10.07,39.15
134.45,-0.123,0.249,5.001,20.031,82,10.07,38.97
134.52,0.003,0.29,5.008,20.004,82,10.07,38.81
134.58,0.173,0.29,5.015,19.989,82,10.07,38.63
134.65,0.175,0.186,5.02,19.988,82,10.07,38.42
134.71,-0.064,0.269,5.025,20.002,82,10.07,38.28
134.77,-0.063,0.166,5.03,20.03,79,10.07,38.14
134.84,-0.066,0.207,5.033,20.065,79,10.07,38.0
134.9,-0.08,0.166,5.038,20.107,79,10.07,37.77
134.97,-0.085,0.269,5.04,20.152,79,10.07,37.5
135.03,-0.028,0.186,5.045,20.193,79,10.07,37.43
135.1,-0.074,0.186,5.048,20.229,79,10.07,37.43
135.16,0.199,0.249,5.054,20.26,79,10.07,37.42
135.23,-0.075,0.186,5.057,20.286,79,10.07,37.4
135.29,0.041,0.249,5.061,20.307,79,10.07,37.4
135.35,0.203,0.186,5.065,20.322,79,10.07,37.41
135.42,0.198,0.228,5.067,20.328,79,10.07,37.41
135.48,-0.045,0.104,5.071,20.326,79,10.07,37.42
135.55,-0.054,0.249,5.074,20.319,77,10.07,37.45
135.61,-0.063,0.145,5.077,20.305,77,10.07,37.45
135.68,-0.088,0.269,5.081,20.284,77,10.07,37.39
135.74,-0.103,0.228,5.087,20.255,77,10.07,37.26
135.81,-0.068,0.186,5.09,20.22,77,10.07,37.34
135.87,-0.099,0.249,5.096,20.179,77,10.07,37.54
135.94,0.079,0.186,5.099,20.133,77,10.07,37.72
136.0,-0.085,0.166,5.101,20.085,77,10.07,37.87
136.06,-0.033,0.186,5.105,20.036,77,10.07,38.07
136.13,0.103,0.228,5.107,19.986,77,10.07,38.26
136.19,0.162,0.186,5.111,19.936,77,10.07,38.47
136.26,-0.099,0.249,5.115,19.881,77,10.07,38.69
136.32,-0.127,0.207,5.117,19.825,76,10.07,38.94
136.39,-0.129,0.166,5.121,19.773,76,10.07,39.13
136.45,-0.153,0.207,5.124,19.722,76,10.07,39.26
136.52,-0.115,0.269,5.126,19.671,76,10.07,39.33
136.58,-0.138,0.207,5.128,19.622,76,10.07,39.54
136.65,0.052,0.228,5.131,19.576,76,10.07,39.78
136.71,-0.116,0.166,5.132,19.532,76,10.07,39.99
136.77,-0.029,0.207,5.133,19.492,76,10.07,40.13
136.84,0.129,0.249,5.134,19.45,76,10.07,40.27
136.9,0.19,0.186,5.136,19.412,76,10.07,40.32
136.97,-0.06,0.166,5.137,19.371,76,10.07,40.26
137.03,-0.076,0.186,5.138,19.333,83,10.07,40.18
137.1,-0.065,0.124,5.138,19.294,83,10.07,40.05
137.16,-0.074,0.186,5.141,19.259,83,10.07,39.86
137.23,-0.02,0.166,5.143,19.225,83,10.07,39.59
137.29,-0.091,0.186,5.144,19.19,83,10.07,39.48
137.35,0.166,0.186,5.146,19.159,83,10.07,39.39
137.42,-0.035,0.166,5.148,19.129,83,10.07,39.27
137.48,0.074,0.145,5.151,19.099,83,10.07,39.08
137.55,0.272,0.269,5.151,19.071,83,10.07,38.93
137.61,0.121,0.186,5.152,19.042,83,10.07,38.74
137.68,-0.034,0.186,5.153,19.016,83,10.07,38.56
137.74,-0.019,0.207,5.156,18.991,88,10.07,38.37
137.81,-0.028,0.249,5.156,18.966,88,10.07,38.23
137.87,0.017,0.228,5.157,18.944,88,10.07,37.94
137.94,-0.044,0.166,5.158,18.923,88,10.07,37.69
138.0,0.219,0.207,5.158,18.9,88,10.07,37.61
138.06,-0.05,0.186,5.158,18.879,88,10.07,37.58
138.13,0.059,0.166,5.158,18.861,88,10.07,37.52
138.19,0.221,0.186,5.158,18.844,88,10.07,37.47
138.26,0.216,0.124,5.158,18.829,88,10.07,37.46
138.32,-0.023,0.207,5.158,18.815,88,10.07,37.44
138.39,-0.027,0.145,5.156,18.805,89,10.07,37.44
138.45,-0.034,0.186,5.156,18.8,89,10.06,37.44
138.52,-0.003,0.166,5.156,18.796,89,10.06,37.39
138.58,-0.062,0.166,5.154,18.797,89,10.06,37.24
138.65,-0.078,0.104,5.153,18.802,89,10.06,37.27
138.71,-0.06,0.249,5.153,18.807,89,10.07,37.42
138.77,0.011,0.186,5.153,18.813,89,10.07,37.57
138.84,0.16,0.166,5.152,18.823,89,10.07,37.71
138.9,0.165,0.29,5.151,18.833,89,10.07,37.92
138.97,-0.078,0.228,5.148,18.85,89,10.07,38.31
139.03,-0.09,0.166,5.148,18.852,89,10.07,38.33
139.1,-0.094,0.228,5.147,18.859,70,10.07,38.56
139.16,-0.063,0.186,5.146,18.865,70,10.07,38.72
139.23,-0.143,0.207,5.146,18.875,70,10.07,38.8
139.29,0.108,0.249,5.143,18.885,70,10.07,39.04
139.35,-0.114,0.186,5.142,18.895,70,10.07,39.36
139.42,-0.001,0.186,5.141,18.906,70,10.07,39.59
139.48,0.174,0.207,5.139,18.921,70,10.06,39.75
139.55,0.038,0.166,5.138,18.938,70,10.06,39.92
139.61,-0.095,0.166,5.137,18.954,70,10.07,40.07
139.68,-0.072,0.207,5.136,18.971,70,10.07,40.18
139.74,-0.044,0.186,5.133,18.987,70,10.06,40.34
139.81,-0.067,0.166,5.132,19.001,70,10.05,40.33
139.87,0.017,0.207,5.131,19.012,70,10.05,40.22
139.94,0.052,0.166,5.128,19.021,70,10.05,40.16
140.0,0.014,0.29,5.128,19.026,70,10.06,40.15
140.06,0.155,0.207,5.126,19.03,70,10.07,40.03
140.13,0.233,0.166,5.126,19.032,70,10.07,39.88
140.19,-0.01,0.207,5.124,19.03,70,10.08,39.75
140.26,-0.024,0.249,5.122,19.026,97,10.08,39.63
140.32,-0.013,0.145,5.121,19.018,97,10.08,39.48
140.39,0.0,0.166,5.12,19.009,97,10.07,39.29
140.45,0.006,0.166,5.117,19.002,97,10.08,38.95
140.52,-0.046,0.311,5.116,18.994,97,10.08,38.75
140.58,0.213,0.186,5.114,18.99,97,10.08,38.63
140.65,0.047,0.186,5.112,18.99,97,10.08,38.53
140.71,0.157,0.186,5.111,18.998,97,10.1,38.36
140.77,0.312,0.186,5.111,19.017,97,10.08,38.23
140.84,0.053,0.166,5.109,19.044,97,10.08,38.1
140.9,-0.008,0.269,5.107,19.079,97,10.08,37.97
140.97,-0.003,0.207,5.106,19.126,90,10.08,37.84
141.03,-0.019,0.207,5.105,19.176,90,10.08,37.71
141.1,0.028,0.186,5.104,19.231,90,10.08,37.47
141.16,-0.04,0.186,5.104,19.287,90,10.08,37.34
141.23,0.232,0.228,5.101,19.339,90,10.07,37.35
141.29,-0.034,0.186,5.1,19.387,90,10.07,37.41
141.35,0.075,0.249,5.099,19.432,90,10.07,37.39
141.42,0.245,0.249,5.096,19.468,90,10.07,37.38
141.48,0.191,0.124,5.096,19.498,90,10.07,37.37
141.55,-0.027,0.207,5.096,19.522,90,10.07,37.38
141.61,-0.03,0.166,5.094,19.536,88,10.07,37.41
141.68,-0.039,0.29,5.094,19.545,88,10.07,37.44
141.74,-0.061,0.186,5.094,19.548,88,10.07,37.34
141.81,-0.058,0.145,5.094,19.545,88,10.07,37.21
141.87,-0.091,0.249,5.094,19.533,88,10.06,37.3
141.94,-0.08,0.207,5.091,19.515,88,10.06,37.52
142.0,0.157,0.207,5.091,19.491,88,10.07,37.66
142.06,-0.035,0.228,5.091,19.464,88,10.07,37.83
142.13,0.053,0.207,5.091,19.435,88,10.07,38.07
142.19,0.228,0.166,5.092,19.37,88,10.07,38.45
142.26,0.049,0.228,5.094,19.366,88,10.07,38.47
142.32,-0.083,0.166,5.094,19.333,80,10.07,38.71
142.39,-0.08,0.228,5.094,19.301,80,10.06,38.91
142.45,-0.1,0.166,5.094,19.267,80,10.07,39.09
142.52,-0.116,0.228,5.096,19.236,80,10.07,39.13
142.58,-0.12,0.186,5.096,19.208,80,10.07,39.3
142.65,-0.063,0.228,5.099,19.178,80,10.07,39.53
142.71,-0.11,0.166,5.101,19.151,80,10.07,39.78
142.77,0.161,0.166,5.102,19.125,80,10.07,39.92
142.84,-0.127,0.207,5.104,19.103,80,10.07,40.13
142.9,0.018,0.166,5.106,19.082,80,10.07,40.31
142.97,0.19,0.186,5.106,19.062,80,10.07,40.34
143.03,0.165,0.186,5.107,19.043,80,10.07,40.29
143.1,-0.053,0.228,5.109,19.026,75,10.06,40.23
143.16,-0.051,0.249,5.109,19.008,75,10.06,40.11
143.23,-0.06,0.228,5.111,18.993,75,10.07,39.96
143.29,-0.065,0.249,5.111,18.978,75,10.07,39.75
143.35,-0.067,0.166,5.114,18.964,75,10.07,39.52
143.42,-0.018,0.186,5.114,18.949,75,10.07,39.4
143.48,-0.048,0.186,5.115,18.934,75,10.07,39.33
143.55,0.175,0.311,5.115,18.908,75,10.07,39.05
143.61,-0.021,0.249,5.115,18.906,75,10.07,39.04
143.68,0.054,0.166,5.115,18.894,75,10.07,38.91
143.74,0.209,0.228,5.117,18.88,75,10.07,38.75
143.81,0.265,0.186,5.119,18.868,75,10.07,38.58
143.87,0.0,0.186,5.119,18.857,75,10.07,38.43
143.94,-0.015,0.166,5.119,18.844,76,10.07,38.3
144.0,-0.014,0.269,5.119,18.833,76,10.06,38.16
144.06,-0.03,0.207,5.119,18.82,76,10.05,37.94
144.13,-0.017,0.186,5.116,18.81,76,10.05,37.66
144.19,0.004,0.186,5.116,18.798,76,10.06,37.55
144.26,-0.067,0.228,5.116,18.788,76,10.07,37.51
144.32,0.201,0.29,5.116,18.778,76,10.07,37.49
144.39,0.03,0.145,5.116,18.768,76,10.07,37.43
144.45,0.128,0.269,5.116,18.762,76,10.08,37.44
144.52,0.307,0.228,5.115,18.755,76,10.08,37.44
144.58,0.064,0.166,5.114,18.751,76,10.08,37.43
144.65,-0.037,0.186,5.114,18.751,81,10.1,37.45
144.71,-0.035,0.207,5.114,18.752,81,10.08,37.45
144.77,-0.055,0.207,5.112,18.76,81,10.08,37.48
144.84,-0.067,0.145,5.111,18.768,81,10.1,37.36
144.9,-0.025,0.207,5.111,18.78,81,10.1,37.39
144.97,-0.106,0.145,5.111,18.792,81,10.12,37.59
145.03,0.144,0.249,5.109,18.808,81,10.13,37.84
145.1,-0.072,0.166,5.106,18.826,81,10.16,38.03
145.16,0.024,0.186,5.105,18.842,81,10.18,38.24
145.23,0.204,0.186,5.104,18.859,82,10.19,38.44
145.29,0.058,0.249,5.101,18.872,82,10.17,38.67
145.35,-0.11,0.228,5.1,18.885,82,10.15,38.94
145.42,-0.11,0.249,5.099,18.895,82,10.12,39.17
145.48,-0.121,0.249,5.097,18.905,82,10.08,39.35
145.55,-0.097,0.207,5.096,18.914,82,10.06,39.43
145.61,-0.136,0.186,5.094,18.918,82,10.05,39.58
145.68,0.095,0.207,5.092,18.92,82,10.05,39.8
145.74,-0.145,0.145,5.091,18.919,82,10.07,39.99
145.81,-0.029,0.186,5.089,18.916,82,10.1,40.09
145.87,0.133,0.228,5.089,18.911,89,10.11,40.23
145.94,0.172,0.186,5.086,18.905,89,10.12,40.33
146.0,-0.072,0.166,5.086,18.897,89,10.12,40.32
146.06,-0.081,0.166,5.084,18.888,89,10.12,40.21
146.13,-0.078,0.207,5.084,18.878,89,10.1,40.11
146.19,-0.066,0.186,5.081,18.867,89,10.07,40.01
146.26,-0.05,0.186,5.081,18.854,89,10.07,39.76
146.32,-0.093,0.186,5.08,18.832,89,10.07,39.55
146.39,0.141,0.186,5.08,18.829,89,10.08,39.54
146.45,0.002,0.145,5.079,18.818,89,10.1,39.44
146.52,0.122,0.166,5.076,18.808,89,10.1,39.26
146.58,0.283,0.166,5.075,18.801,89,10.1,39.15
146.65,0.022,0.207,5.074,18.793,89,10.11,38.96
146.71,-0.036,0.186,5.074,18.79,89,10.12,38.79
146.77,-0.026,0.228,5.074,18.789,89,10.11,38.62
146.84,-0.044,0.186,5.071,18.793,89,10.13,38.43
146.9,0.001,0.29,5.071,18.802,89,10.13,38.07
146.97,-0.058,0.269,5.071,18.818,89,10.13,37.89
147.03,0.204,0.269,5.071,18.839,89,10.13,37.8
147.1,-0.067,0.186,5.07,18.869,89,10.13,37.76
147.16,0.042,0.207,5.069,18.905,89,10.13,37.63
147.23,0.201,0.269,5.066,18.946,89,10.12,37.57
147.29,0.205,0.166,5.066,18.992,89,10.12,37.53
147.35,-0.037,0.228,5.065,19.039,87,10.11,37.47
147.42,-0.038,0.207,5.064,19.089,87,10.1,37.46
147.48,-0.043,0.145,5.064,19.138,87,10.08,37.47
147.55,-0.059,0.186,5.062,19.182,87,10.07,37.38
147.61,-0.009,0.186,5.061,19.227,87,10.07,37.23
147.68,-0.063,0.207,5.061,19.264,87,10.06,37.24
147.74,0.178,0.186,5.06,19.298,87,10.06,37.31
147.81,-0.072,0.186,5.059,19.324,87,10.06,37.36
147.87,0.029,0.186,5.059,19.345,87,10.07,37.37
147.94,0.176,0.186,5.056,19.36,87,10.07,37.41
148.0,0.193,0.269,5.056,19.366,87,10.07,37.44
148.06,-0.05,0.249,5.055,19.37,84,10.07,37.52
148.13,-0.064,0.186,5.054,19.369,84,10.07,37.63
148.19,-0.08,0.249,5.051,19.362,84,10.07,37.76
148.26,-0.11,0.207,5.051,19.351,84,10.07,37.8
148.32,-0.122,0.228,5.05,19.336,84,10.08,37.8
148.39,-0.072,0.207,5.049,19.321,84,10.08,38.03
148.45,-0.144,0.186,5.049,19.299,84,10.08,38.31
148.52,0.1,0.269,5.046,19.277,84,10.08,38.51
148.58,-0.136,0.145,5.046,19.253,84,10.08,38.66
148.65,-0.031,0.145,5.046,19.231,84,10.08,38.87
148.71,0.134,0.228,5.046,19.207,79,10.08,39.06
148.77,0.031,0.186,5.045,19.184,79,10.08,39.24
148.84,-0.15,0.124,5.044,19.16,79,10.08,39.44
148.9,-0.149,0.145,5.044,19.138,79,10.08,39.6
148.97,-0.163,0.124,5.044,19.117,79,10.08,39.77
149.03,-0.17,0.228,5.044,19.094,79,10.08,39.79
149.1,-0.132,0.166,5.042,19.074,79,10.08,39.85
149.16,-0.198,0.207,5.041,19.055,79,10.08,39.98
149.23,0.053,0.228,5.041,19.035,79,10.08,40.15
149.29,-0.126,0.166,5.041,19.017,79,10.08,40.16
149.35,-0.008,0.186,5.039,19.003,79,10.08,40.14
149.42,0.168,0.166,5.039,18.987,85,10.08,40.06
149.48,-0.001,0.166,5.039,18.971,85,10.08,39.92
149.55,-0.127,0.186,5.037,18.956,85,10.08,39.8
149.61,-0.117,0.166,5.037,18.941,85,10.08,39.69
149.68,-0.125,0.166,5.037,18.929,85,10.08,39.59
149.74,-0.136,0.166,5.034,18.916,85,10.08,39.32
149.81,-0.075,0.186,5.034,18.904,85,10.08,39.13
149.87,-0.123,0.166,5.033,18.89,85,10.08,39.05
149.94,0.164,0.207,5.032,18.878,85,10.08,39.0
150.0,-0.123,0.249,5.032,18.868,85,10.08,38.86
150.06,0.006,0.166,5.03,18.858,85,10.08,38.75
150.13,0.173,0.166,5.029,18.848,85,10.08,38.64
150.19,0.168,0.186,5.029,18.838,85,10.07,38.48
150.26,-0.055,0.166,5.027,18.83,82,10.07,38.36
150.32,-0.052,0.228,5.027,18.82,82,10.07,38.24
150.39,-0.058,0.166,5.027,18.812,82,10.07,38.12
150.45,-0.074,0.249,5.027,18.804,82,10.07,37.88
150.52,-0.017,0.228,5.024,18.797,82,10.07,37.63
150.58,0.192,0.207,5.024,18.788,82,10.07,37.55
150.65,0.16,0.207,5.023,18.78,82,10.08,37.55
150.71,-0.073,0.186,5.022,18.773,82,10.08,37.51
150.77,0.036,0.207,5.022,18.767,85,10.08,37.46
150.84,0.211,0.145,5.02,18.761,85,10.08,37.45
150.9,0.134,0.249,5.017,18.748,85,10.08,37.43
150.97,-0.064,0.145,5.018,18.747,85,10.08,37.43
151.03,-0.06,0.186,5.017,18.742,85,10.08,37.43
151.1,-0.068,0.186,5.017,18.736,85,10.08,37.45
151.16,-0.086,0.186,5.014,18.73,85,10.08,37.35
151.23,-0.067,0.207,5.014,18.725,85,10.08,37.23
151.29,-0.051,0.186,5.012,18.717,85,10.08,37.25
151.35,-0.112,0.166,5.01,18.713,85,10.08,37.34
151.42,0.122,0.166,5.009,18.708,85,10.07,37.39
151.48,-0.03,0.166,5.008,18.703,85,10.07,37.46
151.55,0.061,0.228,5.007,18.698,85,10.07,37.55
151.61,0.211,0.186,5.007,18.693,85,10.07,37.63
151.68,-0.017,0.207,5.004,18.688,85,10.07,37.76
151.74,-0.102,0.166,5.004,18.683,112,10.07,37.94
151.81,-0.106,0.228,5.002,18.679,112,10.07,38.09
151.87,-0.133,0.207,5.002,18.675,112,10.07,38.25
151.94,-0.142,0.186,4.999,18.67,112,10.07,38.25
152.0,-0.107,0.124,4.999,18.665,112,10.07,38.42
152.06,-0.186,0.166,4.997,18.66,112,10.08,38.68
152.13,0.054,0.249,4.997,18.658,112,10.08,38.93
152.19,-0.134,0.166,4.997,18.653,112,10.08,39.12
152.26,-0.024,0.228,4.994,18.648,112,10.08,39.33
152.32,0.143,0.207,4.994,18.644,83,10.08,39.52
152.39,-0.011,0.228,4.992,18.64,83,10.08,39.68
152.45,-0.139,0.166,4.992,18.635,83,10.08,39.87
152.52,-0.126,0.228,4.99,18.633,83,10.08,40.0
152.58,-0.136,0.207,4.989,18.629,83,10.08,40.1
152.65,-0.108,0.186,4.989,18.626,83,10.08,39.97
152.71,-0.124,0.186,4.987,18.623,83,10.08,39.86
152.77,-0.047,0.29,4.987,18.618,83,10.08,39.81
152.84,-0.018,0.186,4.985,18.613,83,10.08,39.79
152.9,-0.038,0.186,4.984,18.61,83,10.08,39.66
152.97,0.099,0.207,4.984,18.606,83,10.08,39.55
153.03,0.199,0.124,4.982,18.602,83,10.08,39.44
153.1,-0.048,0.166,4.982,18.601,83,10.08,39.28
153.16,-0.073,0.124,4.979,18.596,87,10.07,39.15
153.23,-0.072,0.228,4.979,18.593,87,10.07,39.03
153.29,-0.09,0.186,4.978,18.591,87,10.06,38.85
153.35,-0.07,0.207,4.977,18.586,87,10.06,38.53
153.42,-0.052,0.249,4.975,18.583,87,10.06,38.35
153.48,-0.107,0.186,4.974,18.58,87,10.05,38.28
153.55,0.144,0.186,4.974,18.576,87,10.05,38.22
153.61,-0.011,0.166,4.972,18.573,87,10.05,38.08
153.68,0.09,0.228,4.972,18.57,87,10.05,37.99
153.74,0.248,0.166,4.972,18.566,87,10.05,37.9
153.81,0.021,0.186,4.97,18.563,87,10.06,37.78
153.87,-0.05,0.29,4.969,18.56,82,10.06,37.73
153.94,-0.045,0.311,4.969,18.557,82,10.07,37.67
154.0,-0.063,0.249,4.967,18.555,82,10.07,37.61
154.06,-0.073,0.207,4.967,18.552,82,10.07,37.41
154.13,-0.014,0.186,4.965,18.548,82,10.07,37.33
154.19,-0.083,0.249,4.964,18.545,82,10.07,37.37
154.26,0.165,0.249,4.964,18.541,82,10.06,37.43
154.32,-0.053,0.269,4.963,18.539,82,10.07,37.43
154.39,0.056,0.124,4.965,18.536,82,10.07,37.46
154.45,0.223,0.186,4.964,18.533,82,10.06,37.47
154.52,0.144,0.186,4.963,18.529,82,10.06,37.46
154.58,-0.039,0.186,4.962,18.526,81,10.06,37.47
154.65,-0.033,0.166,4.962,18.523,81,10.07,37.49
154.71,-0.048,0.186,4.96,18.52,81,10.06,37.53
154.77,-0.07,0.186,4.959,18.516,81,10.07,37.4
154.84,-0.035,0.186,4.959,18.514,81,10.07,37.26
154.9,-0.06,0.228,4.959,18.51,81,10.06,37.28
154.97,0.025,0.249,4.959,18.506,81,10.07,37.4
155.03,0.015,0.166,4.957,18.504,81,10.07,37.42
155.1,0.003,0.166,4.957,18.5,81,10.07,37.41
155.16,0.121,0.228,4.955,18.496,81,10.07,37.47
155.23,0.212,0.145,4.954,18.493,81,10.07,37.47
155.29,-0.039,0.145,4.952,18.49,81,10.07,37.45
155.35,-0.068,0.228,4.952,18.488,81,10.07,37.51
155.42,-0.07,0.228,4.951,18.484,81,10.07,37.57
155.48,-0.089,0.207,4.95,18.48,81,10.07,37.56
155.55,-0.064,0.207,4.947,18.479,81,10.07,37.36
155.61,-0.074,0.207,4.947,18.476,81,10.07,37.32
155.68,-0.071,0.186,4.947,18.471,81,10.07,37.4
155.74,0.049,0.207,4.946,18.468,81,10.07,37.47
155.81,-0.034,0.186,4.945,18.465,81,10.07,37.47
155.87,0.075,0.311,4.945,18.461,81,10.07,37.52
155.94,0.19,0.186,4.945,18.459,81,10.07,37.61
156.0,-0.051,0.228,4.942,18.454,81,10.07,37.72
156.06,-0.103,0.186,4.942,18.453,83,10.07,37.86
156.13,-0.109,0.207,4.942,18.449,83,10.07,38.0
156.19,-0.135,0.166,4.94,18.447,83,10.07,38.12
156.26,-0.097,0.228,4.94,18.446,83,10.07,38.12
156.32,-0.146,0.186,4.94,18.442,83,10.07,38.27
156.39,0.095,0.228,4.937,18.439,83,10.07,38.51
156.45,-0.182,0.186,4.937,18.436,83,10.07,38.73
156.52,-0.05,0.186,4.935,18.434,83,10.07,38.85
156.58,0.092,0.249,4.935,18.433,83,10.07,39.04
156.65,0.103,0.207,4.933,18.429,83,10.07,39.21
156.71,-0.118,0.207,4.932,18.428,86,10.07,39.35
156.77,-0.116,0.249,4.932,18.426,86,10.07,39.5
156.84,-0.116,0.145,4.931,18.424,86,10.07,39.64
156.9,-0.082,0.186,4.93,18.422,86,10.07,39.72
156.97,-0.117,0.207,4.93,18.419,86,10.07,39.71
157.03,0.092,0.29,4.927,18.417,86,10.07,39.79
157.1,-0.096,0.249,4.927,18.414,86,10.07,39.84
157.16,-0.005,0.207,4.927,18.411,86,10.07,39.82
157.23,0.144,0.207,4.926,18.409,86,10.07,39.75
157.29,0.185,0.228,4.925,18.406,86,10.07,39.69
157.35,-0.036,0.186,4.925,18.403,86,10.07,39.59
157.42,-0.035,0.186,4.923,18.401,93,10.07,39.47
157.48,-0.03,0.166,4.922,18.399,93,10.07,39.37
157.55,-0.024,0.145,4.922,18.396,93,10.07,39.2
157.61,-0.012,0.207,4.921,18.394,93,10.07,38.92
157.68,-0.077,0.249,4.92,18.393,93,10.07,38.82
157.74,0.171,0.207,4.918,18.389,93,10.07,38.74
157.81,0.017,0.249,4.917,18.387,93,10.07,38.64
157.87,0.119,0.207,4.917,18.386,93,10.06,38.49
157.94,0.277,0.145,4.917,18.384,93,10.07,38.35
158.0,0.048,0.249,4.915,18.382,93,10.07,38.23
158.06,-0.018,0.145,4.915,18.381,89,10.07,38.12
158.13,-0.01,0.186,4.915,18.379,89,10.06,38.0
158.19,-0.027,0.186,4.915,18.378,89,10.07,37.91
158.26,0.023,0.166,4.912,18.376,89,10.07,37.64
158.32,-0.046,0.124,4.912,18.376,89,10.07,37.51
158.39,0.214,0.207,4.912,18.373,89,10.07,37.51
158.45,-0.029,0.228,4.912,18.372,89,10.07,37.52
158.52,0.082,0.186,4.91,18.371,89,10.07,37.47
158.58,0.249,0.186,4.91,18.369,89,10.06,37.47
158.65,0.181,0.207,4.91,18.368,89,10.07,37.46
158.71,-0.01,0.166,4.91,18.367,89,10.07,37.46
158.77,-0.003,0.186,4.91,18.366,89,10.07,37.44
158.84,-0.011,0.166,4.91,18.363,89,10.06,37.45
158.9,-0.014,0.124,4.907,18.362,89,10.07,37.36
158.97,0.025,0.228,4.907,18.359,89,10.06,37.21
159.03,-0.058,0.186,4.907,18.357,89,10.07,37.22
159.1,0.182,0.186,4.906,18.355,89,10.07,37.33
159.16,0.01,0.249,4.905,18.352,89,10.07,37.35
159.23,0.098,0.145,4.905,18.35,89,10.06,37.36
159.29,0.269,0.145,4.905,18.346,89,10.07,37.38
159.35,0.102,0.166,4.905,18.342,89,10.06,37.39
159.42,-0.031,0.166,4.903,18.34,85,10.07,37.41
159.48,-0.025,0.186,4.902,18.335,85,10.07,37.41
159.55,-0.043,0.186,4.902,18.332,85,10.07,37.44
159.61,-0.063,0.186,4.903,18.329,85,10.07,37.3
159.68,-0.024,0.186,4.902,18.326,85,10.06,37.19
159.74,-0.052,0.207,4.902,18.324,85,10.07,37.22
159.81,0.026,0.249,4.9,18.321,85,10.07,37.33
159.87,0.031,0.207,4.9,18.319,85,10.07,37.35
159.94,0.003,0.228,4.9,18.316,85,10.07,37.36
160.0,0.123,0.186,4.897,18.314,85,10.06,37.37
160.06,0.212,0.166,4.897,18.31,85,10.06,37.42
160.13,-0.035,0.207,4.897,18.309,85,10.06,37.5
160.19,-0.071,0.228,4.896,18.309,80,10.07,37.63
160.26,-0.078,0.269,4.895,18.306,80,10.07,37.75
160.32,-0.104,0.249,4.895,18.306,80,10.07,37.86
160.39,-0.118,0.228,4.895,18.306,80,10.07,37.84
160.45,-0.069,0.207,4.892,18.306,80,10.07,38.02
160.52,-0.135,0.124,4.892,18.306,80,10.06,38.27
160.58,0.111,0.228,4.892,18.306,80,10.07,38.5
160.65,-0.14,0.186,4.891,18.306,80,10.07,38.66
160.71,-0.011,0.186,4.891,18.306,80,10.07,38.88
160.77,0.146,0.228,4.89,18.306,80,10.07,39.08
160.84,0.082,0.228,4.89,18.306,80,10.07,39.24
160.9,-0.112,0.166,4.89,18.306,80,10.06,39.46
160.97,-0.105,0.186,4.888,18.306,80,10.06,39.65
161.03,-0.115,0.186,4.887,18.304,80,10.06,39.81
161.1,-0.097,0.186,4.887,18.304,80,10.06,39.85
161.16,-0.111,0.145,4.887,18.304,80,10.06,39.91
161.23,-0.048,0.228,4.885,18.301,80,10.06,40.08
161.29,-0.001,0.207,4.885,18.299,80,10.06,40.27
161.35,-0.034,0.186,4.885,18.295,80,10.07,40.4
161.42,0.103,0.124,4.885,18.294,80,10.06,40.46
161.48,0.203,0.207,4.883,18.291,80,10.06,40.5
161.55,-0.045,0.166,4.882,18.287,80,10.07,40.48
161.61,-0.08,0.207,4.882,18.286,88,10.06,40.41
161.68,-0.065,0.186,4.882,18.284,88,10.07,40.29
161.74,-0.082,0.145,4.88,18.284,88,10.07,40.15
161.81,-0.059,0.166,4.88,18.285,88,10.06,39.89
161.87,-0.047,0.145,4.878,18.29,88,10.06,39.75
161.94,-0.058,0.207,4.877,18.295,88,10.06,39.7
162.0,0.128,0.186,4.877,18.301,88,10.06,39.63
162.06,0.016,0.186,4.877,18.311,88,10.07,39.5
162.13,0.137,0.228,4.876,18.322,88,10.06,39.42
162.19,0.273,0.186,4.875,18.333,88,10.06,39.31
162.26,0.022,0.166,4.875,18.347,88,10.06,39.17
162.32,-0.028,0.249,4.875,18.362,84,10.06,39.07
162.39,-0.02,0.186,4.873,18.373,84,10.06,38.92
162.45,-0.035,0.249,4.872,18.385,84,10.06,38.73
162.52,0.002,0.166,4.872,18.395,84,10.06,38.4
162.58,-0.04,0.145,4.871,18.405,84,10.06,38.23
162.65,0.134,0.186,4.87,18.415,84,10.06,38.14
162.71,0.007,0.166,4.87,18.422,84,10.06,38.06
162.77,0.042,0.207,4.87,18.427,84,10.06,37.94
162.84,0.186,0.145,4.87,18.432,84,10.06,37.87
162.9,0.248,0.228,4.867,18.434,84,10.06,37.79
162.97,-0.019,0.207,4.867,18.436,84,10.06,37.7
163.03,-0.038,0.186,4.867,18.436,85,10.07,37.66
163.1,-0.037,0.249,4.867,18.436,85,10.06,37.6
163.16,-0.052,0.166,4.867,18.436,85,10.06,37.49
163.23,-0.027,0.228,4.865,18.434,85,10.07,37.28
163.29,-0.032,0.249,4.865,18.436,85,10.06,37.23
163.35,-0.041,0.269,4.865,18.438,85,10.06,37.26
163.42,0.127,0.186,4.863,18.444,85,10.06,37.3
163.48,0.017,0.166,4.862,18.45,85,10.07,37.29
163.55,0.132,0.207,4.862,18.46,85,10.07,37.3
163.61,0.272,0.228,4.862,18.47,85,10.06,37.31
163.68,0.009,0.249,4.861,18.48,85,10.06,37.31
163.74,-0.045,0.166,4.86,18.494,83,10.07,37.35
163.81,-0.037,0.186,4.86,18.505,83,10.07,37.34
163.87,-0.052,0.228,4.86,18.519,83,10.06,37.34
163.94,-0.063,0.186,4.859,18.53,83,10.06,37.15
164.0,-0.033,0.228,4.858,18.54,83,10.07,37.11
164.06,-0.039,0.269,4.858,18.546,83,10.06,37.16
164.13,-0.089,0.124,4.858,18.551,83,10.06,37.23
164.19,-0.071,0.124,4.855,18.555,83,10.06,37.24
164.26,0.002,0.145,4.855,18.558,83,10.06,37.29
164.32,0.112,0.186,4.854,18.56,83,10.06,37.37
164.39,0.236,0.166,4.853,18.56,83,10.06,37.47
164.45,-0.014,0.145,4.851,18.556,83,10.06,37.78
164.52,-0.073,0.207,4.851,18.556,83,10.06,37.8
164.58,-0.074,0.186,4.85,18.553,83,10.06,37.95
164.65,-0.097,0.166,4.85,18.547,83,10.06,38.08
164.71,-0.114,0.166,4.85,18.541,83,10.06,38.1
164.77,-0.085,0.186,4.849,18.534,83,10.06,38.27
164.84,-0.105,0.207,4.848,18.525,83,10.06,38.52
164.9,-0.183,0.228,4.848,18.515,83,10.06,38.79
164.97,-0.167,0.228,4.848,18.505,83,10.06,38.96
165.03,-0.047,0.166,4.848,18.495,83,10.06,39.18
165.1,0.084,0.228,4.848,18.486,83,10.06,39.4
165.16,0.18,0.207,4.848,18.475,83,10.06,39.59
165.23,-0.07,0.166,4.846,18.462,83,10.06,40.09
165.29,-0.104,0.166,4.845,18.463,83,10.06,40.11
165.35,-0.094,0.207,4.845,18.458,83,10.07,40.27
165.42,-0.105,0.166,4.845,18.456,83,10.06,40.35
165.48,-0.062,0.166,4.843,18.455,83,10.06,40.34
165.55,-0.125,0.207,4.843,18.455,83,10.07,40.43
165.61,0.124,0.228,4.843,18.458,83,10.06,40.49
165.68,-0.092,0.207,4.841,18.459,83,10.06,40.48
165.74,0.037,0.228,4.84,18.463,83,10.06,40.4
165.81,0.224,0.249,4.84,18.466,83,10.06,40.35
165.87,0.095,0.207,4.838,18.468,83,10.06,40.25
165.94,-0.063,0.145,4.838,18.468,83,10.06,40.11
166.0,-0.049,0.186,4.838,18.47,83,10.06,39.99
166.06,-0.052,0.249,4.836,18.469,83,10.06,39.87
166.13,-0.065,0.166,4.836,18.468,83,10.06,39.61
166.19,-0.011,0.207,4.835,18.465,83,10.06,39.35
166.26,-0.063,0.186,4.835,18.461,83,10.06,39.26
166.32,0.211,0.207,4.834,18.456,83,10.06,39.18
166.39,-0.071,0.166,4.834,18.453,83,10.06,39.04
166.45,0.046,0.228,4.835,18.448,83,10.06,38.9
166.52,0.206,0.249,4.835,18.443,83,10.06,38.8
166.58,0.222,0.145,4.835,18.437,83,10.06,38.63
166.65,-0.023,0.166,4.835,18.429,83,10.06,38.49
166.71,-0.029,0.186,4.833,18.424,81,10.06,38.36
166.77,-0.034,0.207,4.833,18.417,81,10.06,38.23
166.84,-0.055,0.186,4.833,18.412,81,10.06,37.99
