Time,ECG,EMG,foot GSR,hand GSR,HR,marker,RESP
0.0,-0.054,0.373,6.252,10.939,89,12.48,33.67
0.06,-0.001,0.249,6.252,10.877,89,12.48,33.29
0.13,-0.1,0.352,6.248,10.81,89,12.48,32.94
0.19,0.183,0.456,6.243,10.748,89,12.48,32.48
0.26,-0.012,0.414,6.236,10.687,89,12.48,32.08
0.32,0.066,0.29,6.227,10.631,89,12.48,31.67
0.39,0.117,0.311,6.213,10.576,89,12.48,31.31
0.45,0.197,0.249,6.198,10.525,75,12.48,30.96
0.52,-0.035,0.311,6.181,10.478,75,12.48,30.71
0.58,-0.138,0.331,6.164,10.433,75,12.48,30.54
0.65,-0.152,0.601,6.126,10.353,75,12.48,30.27
0.71,-0.125,0.477,6.125,10.349,75,12.48,30.25
0.77,-0.171,0.456,6.106,10.314,75,12.48,30.09
0.84,-0.239,0.601,6.089,10.281,75,12.48,29.98
0.9,0.103,0.87,6.08,10.249,75,12.48,29.96
0.97,-0.182,0.912,6.072,10.219,75,12.48,30.06
1.03,-0.085,0.849,6.064,10.189,75,12.48,30.27
1.1,0.069,0.725,6.059,10.161,89,12.48,30.54
1.16,0.0,0.787,6.056,10.132,89,12.48,30.89
1.23,-0.213,0.912,6.054,10.102,89,12.48,31.42
1.29,-0.189,0.849,6.048,10.073,89,12.48,32.31
1.35,-0.13,1.533,6.038,10.047,89,12.48,32.83
1.42,-0.185,1.057,6.027,10.023,89,12.48,33.07
1.48,-0.208,1.285,6.011,10.001,89,12.48,32.88
1.55,0.147,0.974,5.991,9.978,89,12.48,32.59
1.61,-0.112,0.849,5.972,9.956,89,12.48,32.48
1.68,-0.03,0.684,5.957,9.937,89,12.48,32.73
1.74,0.129,0.58,5.942,9.92,93,12.48,33.38
1.81,0.034,0.456,5.929,9.906,93,12.48,34.21
1.87,-0.152,0.559,5.913,9.892,93,12.48,34.82
1.94,-0.129,0.58,5.896,9.883,93,12.48,34.83
2.0,-0.066,0.539,5.885,9.882,93,12.48,34.31
2.06,-0.157,0.269,5.876,9.88,93,12.48,34.21
2.13,-0.139,0.331,5.864,9.87,93,12.48,34.17
2.19,0.101,0.601,5.864,9.864,93,12.48,34.3
2.26,-0.148,0.311,5.856,9.858,93,12.48,34.19
2.32,-0.047,1.036,5.854,9.845,93,12.48,33.99
2.39,0.066,1.222,5.857,9.835,95,12.48,33.49
2.45,-0.126,0.269,5.861,9.825,95,12.48,33.0
2.52,-0.269,0.331,5.867,9.823,95,12.48,32.5
2.58,-0.258,0.228,5.859,9.815,95,12.48,32.33
2.65,-0.194,0.746,5.854,9.798,95,12.48,31.93
2.71,-0.288,0.477,5.859,9.784,95,12.48,31.56
2.77,-0.116,0.394,5.86,9.773,95,12.48,31.38
2.84,-0.148,0.331,5.851,9.757,95,12.48,30.93
2.9,-0.241,0.477,5.845,9.745,95,12.48,30.39
2.97,-0.131,0.352,5.84,9.728,94,12.48,29.78
3.03,-0.015,0.559,5.832,9.716,94,12.48,29.35
3.1,-0.234,0.435,5.819,9.718,94,12.48,28.91
3.16,-0.324,0.186,5.809,9.736,94,12.48,28.5
3.23,-0.324,0.352,5.799,9.755,94,12.48,28.19
3.29,-0.284,0.456,5.791,9.778,94,12.48,27.76
3.35,-0.327,0.228,5.783,9.812,94,12.48,27.3
3.42,-0.17300000000000004,0.331,5.778,9.857,94,12.48,26.89
3.48,-0.019,0.559,5.777,9.905,94,12.48,26.61
3.55,-0.287,0.186,5.775,9.955,94,12.48,26.37
3.61,-0.201,0.373,5.772,9.998,94,12.48,26.09
3.68,-0.06,0.228,5.772,10.038,89,12.48,25.85
3.74,-0.108,0.249,5.773,10.078,89,12.48,25.74
3.81,-0.299,0.352,5.781,10.115,89,12.48,25.69
3.87,-0.289,0.228,5.787,10.145,89,12.48,25.6
3.94,-0.289,0.311,5.794,10.168,89,12.48,25.35
4.0,-0.288,0.331,5.802,10.194,89,12.48,25.04
4.06,-0.24,0.249,5.812,10.216,89,12.48,24.82
4.13,-0.248,0.249,5.823,10.226,89,12.48,24.7
4.19,-0.294,0.186,5.834,10.231,89,12.48,24.65
4.26,0.05,0.497,5.846,10.232,89,12.48,24.56
4.32,-0.231,0.269,5.856,10.228,89,12.48,24.45
4.39,-0.14,0.249,5.866,10.223,89,12.48,24.35
4.45,-0.011,0.186,5.876,10.217,76,12.48,24.27
4.52,0.009,0.29,5.884,10.212,76,12.48,24.23
4.58,-0.213,0.207,5.891,10.21,76,12.48,24.12
4.65,-0.217,0.331,5.898,10.208,76,12.48,23.9
4.71,-0.217,0.228,5.903,10.213,76,12.48,23.65
4.77,-0.224,0.207,5.908,10.226,76,12.48,23.42
4.84,-0.217,0.207,5.91,10.24,76,12.48,23.3
4.9,-0.145,0.29,5.912,10.26,76,12.48,23.26
4.97,-0.096,0.29,5.912,10.283,76,12.48,23.26
5.03,0.138,0.352,5.912,10.31,76,12.48,23.22
5.1,-0.01,0.394,5.908,10.336,76,12.48,23.16
5.16,-0.13,0.228,5.905,10.356,76,12.48,23.11
5.23,-0.027,0.331,5.9,10.374,73,12.48,23.08
5.29,0.101,0.269,5.888,10.397,73,12.48,23.01
5.35,-0.045,0.186,5.887,10.4,73,12.48,23.0
5.42,-0.174,0.228,5.88,10.41,73,12.48,22.92
5.48,-0.165,0.352,5.873,10.435,73,12.48,22.76
5.55,-0.174,0.207,5.864,10.447,73,12.48,22.44
5.61,-0.177,0.311,5.854,10.437,73,12.48,22.15
5.68,-0.147,0.207,5.844,10.413,73,12.48,21.94
5.74,-0.13,0.269,5.835,10.39,73,12.48,21.81
5.81,-0.194,0.249,5.831,10.377,73,12.48,21.73
5.87,0.151,0.331,5.821,10.35,73,12.48,21.62
5.94,-0.181,0.269,5.811,10.314,73,12.48,21.47
6.0,-0.063,0.228,5.799,10.278,73,12.48,21.33
6.06,0.063,0.207,5.791,10.234,74,12.48,21.27
6.13,0.122,0.269,5.787,10.186,74,12.48,21.22
6.19,-0.121,0.186,5.802,10.146,74,12.48,21.15
6.26,-0.148,0.249,5.847,10.111,74,12.48,21.09
6.32,-0.146,0.186,5.907,10.072,74,12.48,20.95
6.39,-0.158,0.249,5.954,10.031,74,12.48,20.66
6.45,-0.156,0.311,5.992,9.989,74,12.48,20.48
6.52,-0.101,0.186,6.027,9.944,74,12.48,20.4
6.58,-0.128,0.269,6.057,9.901,74,12.48,20.36
6.65,-0.17,0.228,6.078,9.885,74,12.48,20.31
6.71,-0.036,0.166,6.098,9.856,74,12.48,20.25
6.77,-0.078,0.166,6.118,9.825,74,12.48,20.25
6.84,-0.005,0.249,6.14,9.795,74,12.48,20.26
6.9,0.134,0.207,6.16,9.764,74,12.48,20.27
6.97,0.109,0.269,6.178,9.739,74,12.48,20.28
7.03,-0.11,0.186,6.21,9.694,74,12.48,20.34
7.1,-0.113,0.29,6.211,9.691,74,12.48,20.34
7.16,-0.115,0.228,6.221,9.668,74,12.47,20.27
7.23,-0.123,0.228,6.222,9.642,74,12.48,20.14
7.29,-0.121,0.145,6.213,9.618,74,12.48,20.08
7.35,-0.127,0.145,6.186,9.596,74,12.48,20.09
7.42,-0.146,0.249,6.103,9.572,74,12.48,20.11
7.48,0.158,0.331,6.07,9.545,74,12.48,20.1
7.55,-0.065,0.249,6.049,9.526,74,12.48,20.2
7.61,0.022,0.166,6.011,9.481,74,12.48,20.16
7.68,0.166,0.207,6.008,9.478,74,12.48,20.16
7.74,0.111,0.186,5.992,9.459,74,12.48,20.19
7.81,-0.096,0.249,5.978,9.433,74,12.48,20.26
7.87,-0.098,0.166,5.966,9.412,74,12.48,20.33
7.94,-0.105,0.186,5.952,9.392,74,12.48,20.26
8.0,-0.106,0.166,5.937,9.375,74,12.48,20.12
8.06,-0.031,0.207,5.925,9.358,74,12.48,20.09
8.13,-0.113,0.207,5.914,9.338,74,12.48,20.04
8.19,0.023,0.29,5.903,9.317,74,12.48,20.01
8.26,0.041,0.249,5.891,9.297,74,12.48,20.0
8.32,-0.029,0.269,5.879,9.278,74,12.48,19.98
8.39,0.078,0.145,5.869,9.26,74,12.48,19.99
8.45,0.221,0.124,5.859,9.243,74,12.48,20.0
8.52,0.048,0.249,5.849,9.225,74,12.48,20.0
8.58,-0.08,0.166,5.84,9.205,74,12.48,20.05
8.65,-0.073,0.269,5.832,9.186,74,12.48,20.1
8.71,-0.079,0.145,5.822,9.169,74,12.48,20.01
8.77,-0.077,0.249,5.813,9.154,74,12.48,19.91
8.84,-0.003,0.186,5.806,9.137,74,12.48,19.93
8.9,-0.065,0.311,5.797,9.122,74,12.48,20.1
8.97,-0.019,0.228,5.789,9.106,74,12.48,20.36
9.03,0.187,0.331,5.782,9.09,80,12.48,20.61
9.1,0.023,0.124,5.774,9.072,80,12.48,20.92
9.16,0.127,0.331,5.768,9.06,80,12.48,21.3
9.23,0.278,0.145,5.761,9.045,80,12.48,21.7
9.29,0.16,0.352,5.753,9.03,80,12.48,22.13
9.35,0.0,0.124,5.748,9.015,80,12.48,22.54
9.42,0.008,0.269,5.741,9.0,80,12.48,22.9
9.48,0.002,0.249,5.736,8.986,80,12.48,23.1
9.55,0.041,0.29,5.731,8.974,80,12.48,23.3
9.61,0.03,0.207,5.724,8.961,80,12.48,23.55
9.68,-0.024,0.249,5.719,8.949,80,12.48,23.79
9.74,0.313,0.394,5.714,8.935,80,12.48,23.96
9.81,0.019,0.207,5.709,8.92,80,12.48,24.03
9.87,0.119,0.228,5.706,8.906,80,12.48,24.07
9.94,0.253,0.228,5.701,8.891,80,12.48,24.13
10.0,0.251,0.269,5.696,8.878,80,12.48,24.22
10.06,0.021,0.145,5.691,8.866,80,12.48,24.23
10.13,0.005,0.207,5.686,8.851,80,12.48,24.24
10.19,0.002,0.207,5.684,8.836,80,12.48,24.07
10.26,0.002,0.186,5.679,8.821,80,12.48,23.95
10.32,0.063,0.186,5.674,8.807,80,12.48,23.96
10.39,-0.019,0.207,5.669,8.794,80,12.48,24.03
10.45,0.223,0.373,5.664,8.779,80,12.48,24.14
10.52,0.075,0.29,5.66,8.764,80,12.48,24.23
10.58,0.072,0.186,5.654,8.751,80,12.48,24.26
10.65,0.182,0.186,5.652,8.739,80,12.47,24.26
10.71,0.314,0.228,5.644,8.724,80,12.47,24.29
10.77,0.103,0.166,5.639,8.709,80,12.48,24.31
10.84,0.002,0.186,5.637,8.697,80,12.48,24.31
10.9,0.004,0.145,5.63,8.684,80,12.48,24.23
10.97,-0.004,0.29,5.624,8.669,80,12.48,24.02
11.03,-0.001,0.207,5.619,8.657,80,12.47,23.94
11.1,0.055,0.228,5.614,8.642,80,12.47,23.91
11.16,-0.028,0.249,5.609,8.63,80,12.48,23.87
11.23,0.241,0.352,5.604,8.617,80,12.48,23.87
11.29,0.044,0.477,5.599,8.602,80,12.47,23.86
11.35,0.063,0.207,5.594,8.588,80,12.47,23.87
11.42,0.171,0.249,5.588,8.577,80,12.48,23.83
11.48,0.297,0.207,5.583,8.565,80,12.48,23.84
11.55,0.08,0.249,5.578,8.553,80,12.48,23.79
11.61,-0.02,0.249,5.574,8.538,80,12.48,23.72
11.68,-0.018,0.249,5.567,8.524,80,12.47,23.54
11.74,-0.031,0.311,5.562,8.513,80,12.47,23.24
11.81,-0.04,0.207,5.557,8.5,80,12.48,22.97
11.87,0.004,0.145,5.552,8.489,80,12.48,22.73
11.94,-0.034,0.249,5.547,8.473,80,12.47,22.52
12.0,-0.087,0.249,5.542,8.462,80,12.47,22.32
12.06,0.238,0.352,5.537,8.451,80,12.48,22.05
12.13,-0.028,0.207,5.532,8.439,80,12.47,21.81
12.19,0.049,0.207,5.527,8.431,80,12.48,21.61
12.26,0.192,0.228,5.522,8.424,80,12.47,21.4
12.32,0.162,0.249,5.517,8.414,80,12.48,21.22
12.39,-0.074,0.207,5.515,8.404,80,12.47,21.04
12.45,-0.08,0.249,5.507,8.392,80,12.47,20.89
12.52,-0.081,0.269,5.505,8.38,80,12.47,20.67
12.58,-0.09,0.249,5.5,8.371,80,12.47,20.4
12.65,-0.091,0.166,5.496,8.362,80,12.47,20.26
12.71,-0.026,0.29,5.492,8.35,80,12.47,20.14
12.77,-0.084,0.207,5.487,8.336,80,12.47,20.08
12.84,-0.09,0.249,5.482,8.325,80,12.47,20.0
12.9,0.196,0.477,5.478,8.315,80,12.47,19.95
12.97,-0.024,0.269,5.475,8.303,80,12.47,19.91
13.03,0.07,0.186,5.47,8.289,80,12.47,19.91
13.1,0.224,0.207,5.465,8.278,80,12.47,19.9
13.16,0.13,0.207,5.462,8.267,80,12.47,19.91
13.23,-0.076,0.104,5.458,8.254,72,12.48,19.9
13.29,-0.071,0.29,5.453,8.243,72,12.47,19.93
13.35,-0.072,0.228,5.45,8.233,72,12.47,19.82
13.42,-0.078,0.269,5.445,8.223,72,12.47,19.73
13.48,-0.021,0.311,5.44,8.211,72,12.47,19.71
13.55,-0.058,0.228,5.437,8.2,72,12.48,19.72
13.61,-0.103,0.249,5.433,8.191,72,12.47,19.74
13.68,0.211,0.456,5.428,8.182,72,12.47,19.79
13.74,-0.023,0.228,5.424,8.173,72,12.47,19.86
13.81,0.062,0.269,5.42,8.161,72,12.47,19.9
13.87,0.217,0.311,5.415,8.153,72,12.48,19.91
13.94,0.169,0.331,5.413,8.145,72,12.47,19.94
14.0,-0.064,0.269,5.408,8.135,76,12.48,19.96
14.06,-0.066,0.29,5.405,8.12,76,12.47,19.97
14.13,-0.066,0.186,5.402,8.108,76,12.48,19.82
14.19,-0.022,0.207,5.398,8.099,76,12.48,19.71
14.26,-0.045,0.207,5.395,8.089,76,12.48,19.74
14.32,-0.104,0.331,5.391,8.079,76,12.48,19.77
14.39,0.203,0.435,5.386,8.071,76,12.48,19.79
14.45,-0.029,0.29,5.383,8.063,76,12.48,19.84
14.52,0.054,0.311,5.38,8.058,76,12.48,19.8
14.58,0.211,0.249,5.376,8.053,76,12.47,19.77
14.65,0.164,0.228,5.372,8.045,76,12.47,19.78
14.71,-0.069,0.29,5.368,8.038,84,12.47,19.79
14.77,-0.069,0.249,5.365,8.031,84,12.47,19.82
14.84,-0.066,0.269,5.361,8.026,84,12.47,19.8
14.9,0.0,0.207,5.357,8.021,84,12.47,19.71
14.97,-0.091,0.207,5.353,8.016,84,12.47,19.67
15.03,0.102,0.249,5.35,8.008,84,12.47,19.7
15.1,0.01,0.497,5.346,8.001,84,12.48,19.73
15.16,-0.004,0.249,5.342,7.996,84,12.47,19.75
15.23,0.11,0.352,5.338,7.991,84,12.47,19.8
15.29,0.256,0.166,5.336,7.986,84,12.47,19.87
15.35,0.033,0.249,5.332,7.978,84,12.47,19.94
15.42,-0.071,0.186,5.328,7.972,87,12.47,20.02
15.48,-0.061,0.249,5.326,7.963,87,12.47,20.12
15.55,-0.07,0.207,5.322,7.957,87,12.47,20.09
15.61,-0.04,0.249,5.318,7.95,87,12.47,20.1
15.68,-0.019,0.269,5.316,7.942,87,12.47,20.2
15.74,-0.089,0.166,5.312,7.934,87,12.47,20.36
15.81,0.26,0.331,5.308,7.925,87,12.47,20.5
15.87,-0.076,0.249,5.306,7.915,87,12.47,20.64
15.94,0.049,0.228,5.301,7.907,87,12.47,20.8
16.0,0.186,0.186,5.299,7.897,87,12.47,20.98
16.06,0.248,0.249,5.295,7.887,87,12.47,21.2
16.13,-0.006,0.249,5.291,7.877,87,12.47,21.4
16.19,-0.035,0.269,5.289,7.867,80,12.47,21.64
16.26,-0.03,0.29,5.285,7.86,80,12.47,21.78
16.32,-0.038,0.269,5.281,7.848,80,12.47,21.86
16.39,-0.04,0.249,5.279,7.838,80,12.47,22.08
16.45,0.029,0.186,5.276,7.828,80,12.47,22.39
16.52,-0.023,0.166,5.273,7.819,80,12.47,22.74
16.58,-0.035,0.269,5.27,7.81,80,12.47,23.07
16.65,0.285,0.414,5.266,7.8,80,12.47,23.37
16.71,0.049,0.228,5.264,7.792,80,12.47,23.66
16.77,0.136,0.186,5.26,7.783,80,12.47,23.92
16.84,0.27,0.166,5.256,7.773,80,12.47,24.14
16.9,0.205,0.352,5.254,7.766,80,12.47,24.26
16.97,0.012,0.249,5.251,7.756,80,12.47,24.31
17.03,0.01,0.207,5.248,7.747,73,12.47,24.29
17.1,0.0,0.29,5.244,7.738,73,12.47,24.04
17.16,-0.011,0.207,5.241,7.728,73,12.47,23.82
17.23,-0.017,0.29,5.239,7.72,73,12.47,23.68
17.29,0.021,0.29,5.235,7.711,73,12.47,23.52
17.35,-0.008,0.311,5.233,7.705,73,12.47,23.35
17.42,-0.062,0.249,5.229,7.697,73,12.47,23.1
17.48,0.254,0.331,5.225,7.69,73,12.47,22.81
17.55,-0.029,0.29,5.223,7.681,73,12.47,22.52
17.61,0.051,0.166,5.219,7.673,73,12.47,22.23
17.68,0.18,0.207,5.216,7.665,73,12.47,21.95
17.74,0.186,0.269,5.214,7.658,73,12.47,21.7
17.81,-0.068,0.186,5.212,7.653,70,12.47,21.45
17.87,-0.087,0.249,5.208,7.648,70,12.47,21.22
17.94,-0.091,0.186,5.207,7.644,70,12.47,20.93
18.0,-0.103,0.249,5.203,7.643,70,12.47,20.64
18.06,-0.103,0.228,5.201,7.649,70,12.47,20.43
18.13,-0.093,0.249,5.197,7.66,70,12.47,20.3
18.19,-0.028,0.124,5.194,7.678,70,12.47,20.19
18.26,-0.114,0.228,5.192,7.705,70,12.47,20.11
18.32,0.104,0.331,5.189,7.741,70,12.47,20.04
18.39,-0.015,0.352,5.187,7.786,70,12.47,19.99
18.45,-0.026,0.311,5.184,7.834,70,12.47,19.96
18.52,0.081,0.269,5.182,7.889,68,12.48,19.95
18.58,0.226,0.228,5.181,7.943,68,12.48,19.95
18.65,0.029,0.228,5.178,8.002,68,12.47,19.96
18.71,-0.104,0.186,5.178,8.062,68,12.45,19.95
18.77,-0.099,0.207,5.178,8.117,68,12.47,19.97
18.84,-0.107,0.207,5.178,8.172,68,12.47,19.86
18.9,-0.111,0.207,5.178,8.224,68,12.45,19.76
18.97,-0.113,0.207,5.181,8.279,68,12.47,19.74
19.03,-0.066,0.228,5.181,8.329,68,12.47,19.76
19.1,-0.085,0.145,5.183,8.373,68,12.47,19.78
19.16,-0.136,0.186,5.186,8.411,68,12.47,19.79
19.23,0.178,0.456,5.188,8.444,68,12.47,19.82
19.29,-0.077,0.311,5.191,8.468,68,12.47,19.86
19.35,0.008,0.352,5.193,8.49,68,12.47,19.9
19.42,0.15,0.207,5.196,8.505,68,12.47,19.93
19.48,0.177,0.269,5.198,8.518,68,12.45,19.98
19.55,-0.088,0.29,5.199,8.522,68,12.45,20.01
19.61,-0.111,0.207,5.203,8.516,68,12.45,20.06
19.68,-0.111,0.249,5.203,8.509,68,12.45,20.04
19.74,-0.123,0.269,5.206,8.5,68,12.45,19.92
19.81,-0.126,0.249,5.206,8.489,68,12.47,19.86
19.87,-0.125,0.228,5.207,8.472,68,12.45,19.87
19.94,-0.055,0.29,5.208,8.452,68,12.47,19.89
20.0,-0.13,0.207,5.208,8.432,68,12.47,19.89
20.06,-0.043,0.352,5.208,8.41,68,12.48,19.91
20.13,0.079,0.435,5.207,8.387,68,12.48,19.94
20.19,-0.054,0.166,5.206,8.365,68,12.48,19.98
20.26,0.049,0.207,5.206,8.344,68,12.48,20.02
20.32,0.205,0.207,5.203,8.321,68,12.48,20.06
20.39,0.062,0.29,5.201,8.299,68,12.48,20.1
20.45,-0.108,0.186,5.199,8.276,68,12.48,20.15
20.52,-0.097,0.207,5.197,8.253,68,12.48,20.21
20.58,-0.097,0.228,5.194,8.232,68,12.48,20.17
20.65,-0.095,0.207,5.191,8.21,68,12.47,20.23
20.71,-0.086,0.207,5.188,8.189,68,12.47,20.48
20.77,-0.01,0.228,5.186,8.169,68,12.47,20.8
20.84,-0.07,0.311,5.182,8.149,68,12.47,21.15
20.9,0.008,0.228,5.178,8.129,68,12.47,21.5
20.97,0.175,0.435,5.174,8.112,68,12.47,21.86
21.03,0.029,0.166,5.171,8.094,68,12.48,22.23
21.1,0.132,0.352,5.167,8.078,68,12.48,22.62
21.16,0.288,0.269,5.164,8.062,68,12.47,23.03
21.23,0.148,0.249,5.159,8.045,68,12.47,23.44
21.29,-0.019,0.166,5.157,8.031,71,12.47,23.87
21.35,-0.017,0.166,5.152,8.015,71,12.47,24.24
21.42,-0.025,0.228,5.149,7.998,71,12.47,24.46
21.48,-0.033,0.331,5.144,7.984,71,12.47,24.67
21.55,0.022,0.249,5.142,7.971,71,12.48,24.89
21.61,-0.021,0.249,5.138,7.956,71,12.48,25.01
21.68,-0.06,0.228,5.134,7.942,71,12.47,25.04
21.74,0.278,0.435,5.131,7.929,71,12.47,24.97
21.81,0.005,0.249,5.128,7.916,71,12.48,24.84
21.87,0.081,0.207,5.125,7.904,71,12.48,24.72
21.94,0.22,0.352,5.121,7.891,71,12.47,24.56
22.0,0.165,0.269,5.119,7.879,71,12.47,24.36
22.06,-0.067,0.207,5.115,7.867,75,12.48,24.06
22.13,-0.078,0.331,5.112,7.858,75,12.47,23.69
22.19,-0.092,0.207,5.11,7.848,75,12.47,23.19
22.26,-0.109,0.311,5.105,7.838,75,12.47,22.67
22.32,-0.057,0.29,5.102,7.828,75,12.47,22.3
22.39,-0.049,0.249,5.1,7.819,75,12.47,22.0
22.45,-0.118,0.228,5.096,7.813,75,12.47,21.76
22.52,-0.115,0.186,5.094,7.807,75,12.47,21.51
22.58,0.157,0.477,5.09,7.804,75,12.47,21.26
22.65,-0.066,0.186,5.085,7.803,75,12.47,20.89
22.71,0.024,0.228,5.084,7.803,75,12.47,20.87
22.77,0.18,0.249,5.081,7.806,72,12.47,20.72
22.84,0.084,0.269,5.079,7.81,72,12.47,20.6
22.9,-0.121,0.311,5.076,7.818,72,12.47,20.49
22.97,-0.116,0.207,5.074,7.824,72,12.47,20.41
23.03,-0.117,0.228,5.071,7.829,72,12.47,20.24
23.1,-0.126,0.207,5.069,7.837,72,12.47,20.08
23.16,-0.128,0.352,5.066,7.842,72,12.47,19.99
23.23,-0.078,0.228,5.064,7.849,72,12.47,19.95
23.29,-0.099,0.207,5.062,7.854,72,12.47,19.93
23.35,-0.145,0.207,5.061,7.858,72,12.47,19.9
23.42,0.177,0.477,5.059,7.861,72,12.47,19.9
23.48,-0.071,0.228,5.056,7.863,72,12.47,19.91
23.55,0.015,0.228,5.055,7.863,72,12.47,19.93
23.61,0.164,0.269,5.054,7.861,70,12.47,19.94
23.68,0.174,0.186,5.052,7.857,70,12.47,19.96
23.74,-0.083,0.269,5.05,7.849,70,12.47,19.96
23.81,-0.094,0.186,5.049,7.843,70,12.47,19.99
23.87,-0.088,0.228,5.046,7.833,70,12.47,19.94
23.94,-0.096,0.228,5.045,7.822,70,12.47,19.82
24.0,-0.095,0.186,5.044,7.809,70,12.47,19.79
24.06,-0.086,0.249,5.041,7.795,70,12.47,19.8
24.13,-0.024,0.331,5.04,7.784,70,12.47,19.82
24.19,0.18,0.394,5.038,7.772,70,12.47,19.84
24.26,0.254,0.394,5.037,7.76,70,12.47,19.85
24.32,-0.063,0.269,5.034,7.747,70,12.47,19.89
24.39,-0.011,0.228,5.033,7.735,74,12.47,19.9
24.45,0.099,0.145,5.03,7.725,74,12.47,19.93
24.52,0.244,0.249,5.027,7.702,74,12.47,19.98
24.58,0.035,0.228,5.027,7.701,74,12.47,19.99
24.65,-0.084,0.186,5.023,7.69,74,12.47,20.01
24.71,-0.076,0.249,5.022,7.679,74,12.45,20.03
24.77,-0.08,0.166,5.018,7.669,74,12.45,19.93
24.84,-0.081,0.228,5.017,7.659,74,12.47,19.83
24.9,-0.079,0.311,5.013,7.65,74,12.45,19.83
24.97,-0.005,0.207,5.012,7.641,74,12.47,19.89
25.03,-0.056,0.228,5.009,7.631,74,12.47,20.09
25.1,-0.053,0.373,5.005,7.621,74,12.47,20.38
25.16,0.235,0.414,5.003,7.614,74,12.47,20.74
25.23,0.02,0.311,5.0,7.605,74,12.48,21.11
25.29,0.118,0.249,4.998,7.598,74,12.47,21.49
25.35,0.282,0.166,4.995,7.591,74,12.47,21.87
25.42,0.207,0.207,4.992,7.583,74,12.48,22.27
25.48,-0.001,0.269,4.99,7.576,74,12.48,22.66
25.55,0.0,0.207,4.988,7.567,64,12.47,23.05
25.61,0.0,0.207,4.984,7.559,64,12.47,23.35
25.68,-0.006,0.186,4.982,7.557,64,12.47,23.67
25.74,0.049,0.207,4.979,7.553,64,12.47,24.06
25.81,-0.001,0.249,4.977,7.546,64,12.47,24.44
25.87,-0.037,0.228,4.974,7.537,64,12.48,24.79
25.94,0.302,0.435,4.972,7.528,64,12.47,25.0
26.0,0.036,0.249,4.969,7.519,64,12.47,25.12
26.06,0.114,0.249,4.965,7.512,64,12.48,25.12
26.13,0.257,0.207,4.964,7.502,64,12.48,25.04
26.19,0.197,0.29,4.962,7.492,64,12.48,24.87
26.26,-0.03,0.207,4.959,7.482,64,12.48,24.64
26.32,-0.044,0.249,4.957,7.471,76,12.48,24.4
26.39,-0.054,0.29,4.954,7.46,76,12.48,24.02
26.45,-0.069,0.228,4.952,7.452,76,12.48,23.63
26.52,-0.064,0.331,4.95,7.445,76,12.48,23.33
26.58,-0.025,0.228,4.947,7.436,76,12.48,23.04
26.65,-0.113,0.269,4.946,7.429,76,12.47,22.78
26.71,0.266,0.331,4.942,7.426,76,12.48,22.51
26.77,-0.158,0.435,4.94,7.424,76,12.48,22.2
26.84,-0.026,0.228,4.937,7.421,76,12.48,21.95
26.9,0.087,0.269,4.935,7.418,75,12.48,21.74
26.97,0.204,0.249,4.932,7.414,75,12.48,21.57
27.03,-0.046,0.29,4.93,7.409,75,12.48,21.38
27.1,-0.124,0.166,4.928,7.408,75,12.48,21.22
27.16,-0.117,0.228,4.926,7.408,75,12.48,21.01
27.23,-0.128,0.228,4.923,7.412,75,12.48,20.74
27.29,-0.133,0.29,4.922,7.413,75,12.48,20.52
27.35,-0.093,0.331,4.918,7.412,75,12.48,20.36
27.42,-0.088,0.228,4.917,7.411,75,12.48,20.24
27.48,-0.147,0.228,4.915,7.408,75,12.48,20.13
27.55,0.195,0.435,4.912,7.408,75,12.48,20.03
27.61,-0.11,0.186,4.91,7.407,75,12.48,19.95
27.68,-0.01,0.249,4.908,7.406,75,12.55,19.91
27.74,0.13,0.228,4.907,7.403,72,12.95,19.89
27.81,0.188,0.29,4.905,7.402,72,13.42,19.87
27.87,-0.088,0.145,4.902,7.401,72,12.99,19.85
27.94,-0.119,0.228,4.9,7.397,72,12.58,19.86
28.0,-0.115,0.186,4.898,7.392,72,12.54,19.83
28.06,-0.124,0.249,4.896,7.387,72,12.53,19.71
28.13,-0.127,0.249,4.895,7.382,72,12.5,19.66
28.19,-0.088,0.228,4.892,7.377,72,12.55,19.64
28.26,-0.09,0.124,4.89,7.372,72,12.62,19.66
28.32,-0.148,0.249,4.888,7.367,72,12.69,19.66
28.39,0.185,0.373,4.886,7.362,72,12.7,19.66
28.45,-0.109,0.311,4.885,7.357,72,12.71,19.68
28.52,-0.007,0.29,4.882,7.354,72,12.73,19.71
28.58,0.131,0.228,4.88,7.352,71,12.76,19.73
28.65,0.193,0.207,4.878,7.347,71,12.73,19.76
28.71,-0.078,0.269,4.876,7.342,71,12.87,19.78
28.77,-0.105,0.186,4.873,7.337,71,12.75,19.81
28.84,-0.094,0.186,4.872,7.33,71,12.66,19.85
28.9,-0.094,0.207,4.87,7.325,71,12.58,19.93
28.97,-0.083,0.29,4.867,7.317,71,12.53,20.14
29.03,-0.006,0.186,4.865,7.312,71,12.53,20.46
29.1,-0.071,0.269,4.863,7.307,71,12.51,20.81
29.16,-0.011,0.269,4.861,7.3,71,12.54,21.15
29.23,0.204,0.331,4.859,7.293,71,12.58,21.48
29.29,0.031,0.145,4.856,7.286,71,12.55,21.81
29.35,0.138,0.207,4.855,7.277,71,12.47,22.18
29.42,0.3,0.228,4.853,7.27,71,12.43,22.54
29.48,0.184,0.249,4.851,7.262,71,12.45,22.9
29.55,0.007,0.228,4.848,7.255,71,12.45,23.25
29.61,0.013,0.269,4.845,7.248,73,12.45,23.58
29.68,0.012,0.29,4.844,7.241,73,12.44,23.83
29.74,0.008,0.207,4.841,7.237,73,12.44,24.11
29.81,0.062,0.249,4.84,7.234,73,12.45,24.42
29.87,0.022,0.145,4.838,7.226,73,12.44,24.71
29.94,-0.017,0.311,4.834,7.219,73,12.49,24.94
30.0,0.004782217782217782,0.435,4.833,7.209,73,12.43,25.07
30.06,0.052,0.166,4.83,7.201,73,12.71,25.12
30.13,0.134,0.311,4.828,7.194,73,12.49,25.09
30.19,0.274,0.228,4.825,7.186,73,12.44,24.98
30.26,0.256,0.207,4.824,7.178,73,12.49,24.82
30.32,0.005,0.166,4.821,7.17,73,12.54,24.58
30.39,-0.011,0.249,4.82,7.161,75,12.51,24.32
30.45,-0.022,0.207,4.818,7.154,75,12.5,23.92
30.52,-0.042,0.311,4.815,7.147,75,12.47,23.48
30.58,-0.057,0.207,4.813,7.138,75,12.54,23.12
30.65,-0.016,0.228,4.81,7.131,75,12.67,22.78
30.71,-0.055,0.311,4.808,7.123,75,12.8,22.49
30.77,-0.106,0.228,4.805,7.116,75,12.82,22.24
30.84,0.232,0.477,4.804,7.109,75,12.8,21.97
30.9,-0.053,0.207,4.801,7.103,75,13.12,21.73
30.97,0.023,0.249,4.799,7.096,75,13.2,21.52
31.03,0.163,0.124,4.796,7.087,75,12.9,21.34
31.1,0.179,0.269,4.795,7.079,75,13.15,21.19
31.16,-0.083,0.207,4.791,7.072,70,12.93,21.04
31.23,-0.099,0.249,4.79,7.064,70,12.82,20.92
31.29,-0.095,0.207,4.788,7.057,70,12.67,20.73
31.35,-0.108,0.186,4.785,7.05,70,12.73,20.51
31.42,-0.107,0.228,4.785,7.044,70,12.66,20.36
31.48,-0.105,0.166,4.781,7.038,70,12.64,20.25
31.55,-0.071,0.249,4.78,7.034,70,12.71,20.19
31.61,-0.057,0.186,4.778,7.029,70,12.66,20.11
31.68,-0.117,0.228,4.775,7.025,70,12.71,20.06
31.74,0.246,0.456,4.773,7.021,70,12.92,20.01
31.81,-0.107,0.228,4.772,7.016,70,13.0,19.98
31.87,0.007,0.124,4.769,7.01,70,13.14,19.95
31.94,0.138,0.269,4.768,7.004,70,13.27,19.94
32.0,0.224,0.124,4.766,6.999,70,12.92,19.93
32.06,-0.046,0.414,4.763,6.992,70,12.62,19.91
32.13,-0.097,1.264,4.761,6.985,65,12.65,19.91
32.19,-0.091,2.196,4.759,6.978,65,12.61,19.88
32.26,-0.101,1.616,4.757,6.968,65,12.7,19.76
32.32,-0.099,1.471,4.754,6.958,65,12.72,19.69
32.39,-0.101,0.891,4.753,6.949,65,12.4,19.63
32.45,-0.093,1.16,4.752,6.946,65,12.48,19.57
32.52,-0.027,0.663,4.749,6.946,65,12.33,19.86
32.58,-0.096,0.974,4.747,6.938,65,12.26,20.19
32.65,-0.02,1.098,4.744,6.93,65,12.58,20.61
32.71,0.121,1.72,4.743,6.92,65,12.99,20.8
32.77,-0.014,1.119,4.742,6.899,65,13.41,20.93
32.84,0.084,1.72,4.741,6.915,65,13.78,21.08
32.9,0.244,1.948,4.738,6.907,65,14.44,21.29
32.97,0.149,0.87,4.737,6.903,65,14.83,21.77
33.03,-0.035,0.767,4.734,6.894,64,14.59,22.35
33.1,-0.023,1.036,4.733,6.883,64,15.41,22.79
33.16,-0.014,0.994,4.732,6.866,64,17.18,23.0
33.23,-0.013,1.948,4.731,6.855,64,17.93,23.13
33.29,0.006,0.994,4.728,6.876,64,14.82,23.41
33.35,0.056,1.409,4.726,6.891,64,13.28,23.74
33.42,-0.023,2.424,4.723,6.899,64,13.03,24.01
33.48,0.327,2.901,4.721,6.902,64,12.58,24.29
33.55,-0.058,1.637,4.718,6.898,64,12.47,24.58
33.61,0.073,3.087,4.717,6.893,64,12.34,24.91
33.68,0.181,1.761,4.716,6.89,64,12.61,25.25
33.74,0.304,2.6382314774413125,4.713,6.882,64,12.18,25.65
33.81,0.054,3.688,4.709,6.876,64,12.31,25.83
33.87,-0.033,3.916,4.708,6.866,73,12.28,25.87
33.94,-0.042,3.9037615740740743,4.706,6.851,73,12.06,25.71
34.0,-0.065,3.869925925925926,4.703,6.836,73,12.14,25.52
34.06,-0.07,3.8188125,4.701,6.83,73,12.48,25.31
34.13,-0.05,3.7547407407407407,4.697,6.827,73,12.48,24.99
34.19,-0.139,3.682030092592593,4.692,6.822,73,12.5,24.56
34.26,0.21,3.605,4.689,6.812,73,12.4,24.06
34.32,-0.171,3.5279699074074076,4.687,6.801,73,12.38,23.56
34.39,-0.038,3.4552592592592593,4.684,6.8,73,12.39,23.08
34.45,0.077,3.3911875,4.68,6.805,77,12.48,22.54
34.52,0.164,3.3400740740740744,4.675,6.805,77,12.54,22.14
34.58,-0.066,3.306238425925926,4.671,6.802,77,12.59,21.83
34.65,-0.135,3.294,4.67,6.798,77,12.58,21.49
34.71,-0.121,3.39759375,4.669,6.792,77,12.8,21.04
34.77,-0.133,3.6254999999999997,4.666,6.788,77,13.09,20.6
34.84,-0.118,3.8534062499999995,4.666,6.785,77,13.16,20.39
34.9,-0.066,3.957,4.662,6.781,77,13.56,20.27
34.97,-0.151,2.693,4.661,6.774,77,12.99,20.1
35.03,0.198,2.6981590701914313,4.66,6.784,77,12.88,19.9
35.1,-0.199,2.714,4.659,6.782,77,13.34,19.73
35.16,-0.039,2.838,4.656,6.778,77,13.45,19.67
35.23,0.1,2.693,4.656,6.775,77,13.36,19.67
35.29,0.207,2.4124335052801698,4.654,6.773,77,13.37,19.66
35.35,-0.033,2.0683638114636143,4.651,6.769,77,13.26,19.61
35.42,-0.089,1.865,4.649,6.767,77,13.82,19.64
35.48,-0.067,1.823,4.645,6.763,77,14.14,19.63
35.55,-0.057,2.093,4.644,6.76,77,13.81,19.59
35.61,-0.016,2.175,4.64,6.758,77,13.19,19.54
35.68,-0.006,2.362,4.636,6.757,77,12.62,19.48
35.74,-0.076,1.678,4.634,6.757,77,13.01,19.44
35.81,0.24,1.927,4.632,6.757,77,13.2,19.43
35.87,-0.032,1.865,4.631,6.759,77,13.32,19.57
35.94,0.083,1.181,4.629,6.76,77,13.72,19.7
36.0,0.24,1.927,4.627,6.763,77,13.88,19.8
36.06,0.313,2.113,4.626,6.768,77,14.02,20.13
36.13,0.059,0.974,4.624,6.773,77,12.93,20.73
36.19,0.028,0.704,4.624,6.778,77,12.77,21.32
36.26,0.044,0.953,4.625,6.783,77,12.84,21.78
36.32,0.053,0.477,4.626,6.788,77,12.71,22.32
36.39,0.132,0.456,4.627,6.793,77,12.78,22.87
36.45,0.054,0.58,4.63,6.798,77,13.01,23.49
36.52,0.159,0.622,4.632,6.802,77,12.93,23.99
36.58,0.262,0.559,4.636,6.805,77,12.75,24.3
36.65,0.138,0.394,4.64,6.807,77,12.76,24.62
36.71,0.247,0.435,4.645,6.81,77,12.84,24.87
36.77,0.22554578813018505,0.704,4.65,6.811,77,13.05,25.14
36.84,0.172,0.663,4.654,6.814,77,12.99,25.37
36.9,0.023,0.456,4.66,6.814,77,13.11,25.49
36.97,0.005,0.435,4.665,6.816,77,13.3,25.33
37.03,-0.025,0.58,4.669,6.819,77,13.34,24.92
37.1,-0.032,1.036,4.675,6.822,77,13.17,24.5
37.16,-0.003,0.559,4.677,6.831,77,12.99,24.25
37.23,-0.129,0.767,4.682,6.843,77,12.89,23.93
37.29,0.099,0.912,4.686,6.861,77,12.92,23.58
37.35,-0.138,0.746,4.689,6.886,77,13.04,23.23
37.42,-0.105,0.601,4.693,6.921,77,13.34,22.77
37.48,-0.035,0.29,4.697,6.966,78,13.53,22.38
37.55,0.091,0.559,4.704,7.023,78,13.53,22.14
37.61,-0.087,0.394,4.715,7.088,78,13.52,21.71
37.68,-0.177,0.311,4.734,7.162,78,13.55,21.16
37.74,-0.153,0.849,4.758,7.242,78,13.61,20.69
37.81,-0.147,0.477,4.775,7.332,78,13.64,20.32
37.87,-0.096,0.497,4.793,7.413,78,13.66,19.93
37.94,-0.077,0.228,4.811,7.494,78,13.6,19.56
38.0,-0.14,0.808,4.836,7.575,78,13.58,19.34
38.06,0.172,0.518,4.867,7.657,78,13.61,19.32
38.13,-0.15,0.373,4.898,7.732,78,13.67,19.27
38.19,-0.054,0.518,4.936,7.807,78,13.7,19.24
38.26,0.051,0.539,4.979,7.884,80,13.75,19.18
38.32,0.117,0.704,5.036,7.976,80,13.83,19.26
38.39,-0.12,0.746,5.105,8.083,80,13.89,19.41
38.45,-0.138,0.601,5.178,8.201,80,13.92,19.47
38.52,-0.145,0.435,5.254,8.328,80,13.92,19.39
38.58,-0.163,0.601,5.32,8.462,80,13.97,19.36
38.65,-0.092,0.331,5.376,8.607,80,14.0,19.42
38.71,-0.148,0.249,5.423,8.744,80,13.98,19.52
38.77,-0.153,0.373,5.483,8.857,80,13.97,19.57
38.84,0.156,0.539,5.597,8.983,80,13.97,19.72
38.9,-0.024,0.249,5.75,9.116,80,13.92,20.12
38.97,0.085,0.186,5.9,9.248,80,13.8,20.44
39.03,0.246,0.207,6.054,9.366,80,13.75,20.89
39.1,0.193,0.394,6.19,9.491,80,13.8,21.44
39.16,0.004,0.477,6.237,9.635,80,13.74,21.96
39.23,0.011,0.331,6.24,9.756,80,13.53,22.35
39.29,0.022,0.269,6.312,9.889,80,12.93,22.62
39.35,0.077,0.249,6.361,10.002,80,12.66,22.95
39.42,-0.01,0.207,6.41,10.156,80,12.6,23.21
39.48,0.309,0.539,6.468,10.339,80,12.8,23.51
39.55,0.01,0.394,6.518,10.528,80,12.89,23.84
39.61,0.081,0.249,6.561,10.694,80,12.87,24.1
39.68,0.19,0.311,6.605,10.801,80,12.86,24.3
39.74,0.299,0.311,6.662,10.888,80,13.01,24.49
39.81,0.07,0.207,6.692,10.97,80,13.09,24.63
39.87,-0.008,0.228,6.714,11.031,87,13.04,24.71
39.94,-0.014,0.331,6.734,11.079,87,12.95,24.66
40.0,0.004,0.269,6.753,11.145,87,12.83,24.53
40.06,0.007,0.311,6.766,11.164,87,12.86,24.48
40.13,-0.07,0.207,6.782,11.169,87,12.86,24.39
40.19,0.297,0.311,6.806,11.173,87,12.84,24.3
40.26,-0.076,0.186,6.818,11.172,87,12.81,24.23
40.32,0.028,0.207,6.832,11.148,87,12.82,24.21
40.39,0.146,0.269,6.845,11.127,87,13.61,24.14
40.45,0.17,0.228,6.847,11.1,87,13.2,24.01
40.52,-0.085,0.29,6.849,11.087,86,11.57,23.81
40.58,-0.13,0.228,6.845,11.082,86,10.73,23.59
40.65,-0.151,0.331,6.838,11.069,86,11.42,23.25
40.71,-0.166,0.228,6.826,11.064,86,15.3,22.83
40.77,-0.127,0.249,6.816,11.047,86,17.32,22.46
40.84,-0.228,0.249,6.804,11.036,86,17.45,22.12
40.9,0.03,0.352,6.791,11.023,86,17.8,21.83
40.97,-0.171,0.331,6.783,10.997,86,16.18,21.5
41.03,-0.161,0.166,6.776,10.97,86,14.42,21.13
41.1,-0.055,0.166,6.772,10.944,81,13.64,20.75
41.16,0.062,0.29,6.773,10.917,81,12.93,20.41
41.23,-0.132,0.186,6.775,10.899,81,13.0,20.1
41.29,-0.234,0.207,6.783,10.873,81,12.53,19.84
41.35,-0.226,0.228,6.787,10.831,81,12.48,19.54
41.42,-0.234,0.186,6.79,10.797,81,12.47,19.18
41.48,-0.238,0.228,6.793,10.761,81,12.28,18.97
41.55,-0.21,0.145,6.794,10.703,81,12.33,18.85
41.61,-0.176,0.186,6.794,10.648,81,12.29,18.77
41.68,-0.246,0.207,6.79,10.592,81,12.28,18.71
41.74,0.135,0.311,6.788,10.529,81,12.29,18.67
41.81,-0.266,0.414,6.779,10.464,81,12.29,18.64
41.87,-0.113,0.186,6.771,10.397,81,12.27,18.62
41.94,0.01,0.331,6.76,10.327,72,12.28,18.62
42.0,0.113,0.166,6.749,10.257,72,12.27,18.62
42.06,-0.116,0.186,6.738,10.187,72,12.27,18.63
42.13,-0.174,0.249,6.725,10.117,72,12.27,18.63
42.19,-0.162,0.249,6.711,10.051,72,12.26,18.6
42.26,-0.171,0.145,6.695,9.988,72,12.27,18.56
42.32,-0.17,0.249,6.677,9.926,72,12.27,18.53
42.39,-0.167,0.166,6.66,9.868,72,12.26,18.52
42.45,-0.126,0.29,6.64,9.81,72,12.26,18.53
42.52,-0.116,0.166,6.623,9.752,72,12.25,18.53
42.58,-0.17,0.228,6.605,9.696,72,12.26,18.52
42.65,0.157,0.456,6.579,9.641,72,12.25,18.55
42.71,-0.137,0.228,6.55,9.589,72,12.25,18.55
42.77,-0.031,0.269,6.52,9.541,72,12.25,18.56
42.84,0.095,0.145,6.492,9.495,72,12.23,18.57
42.9,0.17,0.124,6.46,9.45,72,12.23,18.6
42.97,-0.066,0.373,6.431,9.407,72,12.23,18.65
43.03,-0.099,0.228,6.403,9.364,67,12.23,18.74
43.1,-0.088,0.29,6.373,9.323,67,12.23,18.82
43.16,-0.091,0.207,6.345,9.283,67,12.23,18.95
43.23,-0.081,0.331,6.318,9.245,67,12.23,19.17
43.29,-0.033,0.166,6.29,9.205,67,12.23,19.47
43.35,-0.022,0.228,6.268,9.169,67,12.23,19.81
43.42,-0.068,0.269,6.246,9.133,67,12.23,20.13
43.48,0.281,0.373,6.221,9.099,67,12.23,20.43
43.55,-0.018,0.249,6.198,9.065,67,12.23,20.77
43.61,0.096,0.207,6.178,9.032,67,12.23,21.13
43.68,0.241,0.249,6.155,9.001,67,12.22,21.5
43.74,0.296,0.186,6.135,8.971,67,12.22,21.89
43.81,0.063,0.228,6.115,8.941,67,12.22,22.27
43.87,0.047,0.249,6.096,8.912,67,12.22,22.66
43.94,0.054,0.186,6.078,8.883,67,12.22,22.99
44.0,0.055,0.207,6.061,8.856,67,12.22,23.31
44.06,0.072,0.166,6.043,8.829,67,12.22,23.69
44.13,0.128,0.228,6.027,8.801,67,12.22,24.07
44.19,0.055,0.228,6.009,8.776,67,12.22,24.41
44.26,0.059494498777506115,0.352,5.995,8.751,67,12.22,24.71
44.32,0.073,0.311,5.98,8.727,67,12.22,24.94
44.39,0.164,0.207,5.965,8.703,67,12.22,25.14
44.45,0.278,0.228,5.952,8.679,67,12.22,25.31
44.52,0.23553035844915876,0.186,5.937,8.657,67,12.22,25.46
44.58,0.155,0.186,5.926,8.635,67,12.21,25.56
44.65,0.061,0.207,5.913,8.611,67,12.22,25.63
44.71,0.058,0.186,5.9,8.591,67,12.21,25.62
44.77,0.045,0.166,5.889,8.569,67,12.21,25.55
44.84,0.034,0.186,5.876,8.548,67,12.22,25.54
44.9,0.055,0.228,5.864,8.527,67,12.22,25.5
44.97,0.055,0.249,5.853,8.507,67,12.22,25.44
45.03,-0.028,0.228,5.841,8.487,67,12.21,25.35
45.1,-0.060609060402684566,0.414,5.83,8.467,67,12.21,25.26
45.16,-0.074,0.352,5.819,8.447,67,12.21,25.09
45.23,0.02,0.228,5.809,8.427,67,12.21,24.77
45.29,0.128,0.207,5.799,8.408,67,12.21,24.3
45.35,0.179,0.29,5.789,8.39,67,12.21,23.72
45.42,-0.086,0.186,5.779,8.373,67,12.21,23.14
45.48,-0.138,0.166,5.769,8.353,72,12.21,22.59
45.55,-0.142,0.29,5.759,8.335,72,12.21,22.02
45.61,-0.161,0.186,5.749,8.318,72,12.21,21.41
45.68,-0.172,0.186,5.74,8.299,72,12.21,20.92
45.74,-0.177,0.124,5.732,8.282,72,12.21,20.53
45.81,-0.149,0.249,5.722,8.264,72,12.21,20.21
45.87,-0.132,0.228,5.712,8.247,72,12.21,19.92
45.94,-0.201,0.166,5.705,8.232,72,12.21,19.65
46.0,0.151,0.311,5.696,8.213,72,12.21,19.44
46.06,-0.208,0.228,5.687,8.197,72,12.2,19.23
46.13,-0.089,0.145,5.68,8.181,72,12.2,19.07
46.19,0.032,0.29,5.671,8.165,90,12.2,18.93
46.26,0.114,0.186,5.664,8.15,90,12.21,18.82
46.32,-0.131,0.186,5.655,8.134,90,12.21,18.75
46.39,-0.183,0.228,5.648,8.119,90,12.21,18.71
46.45,-0.178,0.207,5.64,8.103,90,12.21,18.64
46.52,-0.188,0.166,5.633,8.088,90,12.21,18.56
46.58,-0.188,0.249,5.625,8.073,90,12.2,18.52
46.65,-0.187,0.207,5.618,8.059,90,12.2,18.5
46.71,-0.182,0.186,5.61,8.045,90,12.2,18.5
46.77,-0.11,0.166,5.603,8.033,90,12.2,18.48
46.84,-0.175,0.145,5.597,8.021,90,12.2,18.47
46.9,-0.143,0.311,5.589,8.006,90,12.2,18.47
46.97,0.063,0.435,5.583,7.991,90,12.2,18.47
47.03,-0.112,0.186,5.575,7.977,90,12.2,18.48
47.1,-0.016,0.228,5.569,7.963,90,12.2,18.49
47.16,0.123,0.145,5.563,7.948,64,12.2,18.51
47.23,0.043,0.186,5.557,7.936,64,12.2,18.52
47.29,-0.153,0.145,5.55,7.921,64,12.2,18.52
47.35,-0.146,0.145,5.543,7.909,64,12.2,18.52
47.42,-0.145,0.207,5.537,7.894,64,12.2,18.48
47.48,-0.15,0.331,5.531,7.881,64,12.2,18.44
47.55,-0.149,0.228,5.525,7.866,64,12.2,18.42
47.61,-0.145,0.207,5.52,7.853,64,12.2,18.42
47.68,-0.075,0.249,5.512,7.84,64,12.2,18.44
47.74,-0.135,0.166,5.506,7.828,64,12.2,18.42
47.81,-0.124,0.29,5.5,7.814,64,12.2,18.44
47.87,0.114,0.331,5.495,7.802,64,12.2,18.45
47.94,-0.077,0.249,5.488,7.788,64,12.2,18.46
48.0,0.017,0.186,5.482,7.776,64,12.2,18.47
48.06,0.163,0.207,5.478,7.763,64,12.2,18.47
48.13,0.092,0.207,5.473,7.751,64,12.2,18.5
48.19,-0.108,0.186,5.468,7.74,65,12.2,18.51
48.26,-0.105,0.124,5.46,7.726,65,12.2,18.51
48.32,-0.102,0.124,5.455,7.713,65,12.2,18.48
48.39,-0.106,0.166,5.45,7.702,65,12.2,18.43
48.45,-0.104,0.186,5.445,7.69,65,12.2,18.41
48.52,-0.093,0.207,5.44,7.678,65,12.2,18.41
48.58,-0.029,0.311,5.434,7.665,65,12.2,18.45
48.65,-0.104,0.166,5.428,7.654,65,12.2,18.49
48.71,0.185,0.29,5.423,7.641,65,12.2,18.54
48.77,-0.076,0.249,5.418,7.629,65,12.2,18.61
48.84,0.0,0.145,5.413,7.618,65,12.2,18.7
48.9,0.111,0.166,5.408,7.606,65,12.2,18.89
48.97,0.255,0.249,5.403,7.595,65,12.2,19.14
49.03,0.068,0.228,5.398,7.584,65,12.18,19.41
49.1,-0.049,0.207,5.393,7.573,68,12.2,19.69
49.16,-0.032,0.186,5.388,7.562,68,12.2,19.94
49.23,-0.032,0.249,5.383,7.549,68,12.2,20.09
49.29,-0.031,0.166,5.378,7.538,68,12.18,20.28
49.35,0.027,0.186,5.373,7.527,68,12.2,20.58
49.42,-0.001,0.186,5.368,7.514,68,12.2,20.88
49.48,-0.039,0.269,5.365,7.505,68,12.18,21.2
49.55,0.287,0.29,5.359,7.495,68,12.2,21.48
49.61,0.042,0.166,5.356,7.482,68,12.2,21.8
49.68,0.126,0.228,5.351,7.472,68,12.2,22.15
49.74,0.271,0.249,5.346,7.461,68,12.18,22.46
49.81,0.255,0.207,5.342,7.45,68,12.2,22.75
49.87,0.023,0.207,5.338,7.44,68,12.2,22.98
49.94,0.018,0.186,5.333,7.43,68,12.2,23.18
50.0,0.018,0.186,5.328,7.42,68,12.18,23.24
50.06,0.013,0.207,5.323,7.409,68,12.18,23.3
50.13,0.027,0.186,5.318,7.398,68,12.2,23.45
50.19,0.072,0.166,5.313,7.388,68,12.2,23.6
50.26,-0.009,0.207,5.311,7.377,68,12.2,23.71
50.32,-0.030851503759398498,0.331,5.306,7.365,74,12.2,23.76
50.39,-0.039,0.249,5.301,7.355,74,12.18,23.78
50.45,0.091,0.186,5.296,7.345,74,12.2,23.76
50.52,0.204,0.228,5.294,7.335,74,12.18,23.73
50.58,0.322,0.207,5.289,7.326,74,12.2,23.72
50.65,0.073,0.145,5.284,7.316,74,12.2,23.68
50.71,-0.008,0.29,5.28,7.306,74,12.18,23.61
50.77,-0.003,0.207,5.276,7.296,74,12.18,23.48
50.84,-0.018,0.228,5.271,7.286,74,12.18,23.31
50.9,-0.027,0.207,5.268,7.276,74,12.18,23.26
50.97,-0.022,0.186,5.264,7.266,74,12.18,23.16
51.03,0.017,0.249,5.259,7.256,74,12.18,23.03
51.1,-0.067,0.228,5.255,7.246,74,12.2,22.85
51.16,0.282,0.29,5.251,7.236,74,12.18,22.64
51.23,-0.088,0.331,5.246,7.228,74,12.18,22.42
51.29,0.002,0.186,5.244,7.219,74,12.18,22.17
51.35,0.104,0.145,5.239,7.209,74,12.18,21.88
51.42,0.226,0.186,5.235,7.199,74,12.18,21.57
51.48,-0.001,0.249,5.231,7.189,74,12.18,21.23
51.55,-0.105,0.186,5.226,7.181,74,12.18,20.9
51.61,-0.104,0.228,5.224,7.171,74,12.18,20.56
51.68,-0.117,0.228,5.22,7.161,74,12.18,20.15
51.74,-0.124,0.228,5.216,7.152,74,12.18,19.82
51.81,-0.129,0.166,5.213,7.142,74,12.18,19.56
51.87,-0.132,0.228,5.209,7.134,74,12.18,19.34
51.94,-0.067,0.186,5.204,7.124,74,12.18,19.14
52.0,-0.137,0.249,5.202,7.117,74,12.18,18.93
52.06,-0.113,0.166,5.198,7.107,74,12.18,18.77
52.13,0.116,0.435,5.194,7.098,74,12.18,18.66
52.19,-0.082,0.207,5.191,7.089,74,12.18,18.6
52.26,0.008,0.166,5.187,7.079,74,12.18,18.57
52.32,0.158,0.269,5.183,7.072,65,12.18,18.55
52.39,0.078,0.228,5.179,7.062,65,12.18,18.54
52.45,-0.134,0.186,5.177,7.052,65,12.18,18.53
52.52,-0.134,0.186,5.172,7.045,65,12.18,18.52
52.58,-0.133,0.166,5.169,7.035,65,12.18,18.46
52.65,-0.145,0.166,5.166,7.027,65,12.18,18.41
52.71,-0.147,0.331,5.162,7.017,65,12.18,18.4
52.77,-0.149,0.186,5.159,7.01,65,12.18,18.4
52.84,-0.102,0.145,5.154,7.001,65,12.18,18.41
52.9,-0.122,0.166,5.152,6.992,65,12.18,18.41
52.97,-0.168,0.124,5.148,6.982,65,12.17,18.41
53.03,0.133,0.435,5.144,6.975,65,12.18,18.41
53.1,-0.114,0.186,5.142,6.967,65,12.17,18.42
53.16,-0.036,0.186,5.138,6.958,65,12.17,18.43
53.23,0.107,0.186,5.134,6.95,64,12.17,18.45
53.29,0.084,0.249,5.131,6.943,64,12.17,18.47
53.35,-0.119,0.145,5.128,6.934,64,12.17,18.47
53.42,-0.144,0.207,5.125,6.925,64,12.17,18.49
53.48,-0.139,0.207,5.122,6.918,64,12.17,18.46
53.55,-0.143,0.249,5.115,6.902,64,12.17,18.38
53.61,-0.142,0.145,5.116,6.901,64,12.17,18.37
53.68,-0.139,0.166,5.112,6.893,64,12.17,18.37
53.74,-0.092,0.145,5.11,6.886,64,12.17,18.4
53.81,-0.101,0.29,5.105,6.877,64,12.17,18.48
53.87,-0.146,0.166,5.101,6.87,64,12.17,18.58
53.94,0.171,0.394,5.099,6.861,64,12.17,18.71
54.0,-0.084,0.249,5.095,6.853,64,12.17,18.9
54.06,0.009,0.145,5.092,6.846,64,12.17,19.13
54.13,0.154,0.207,5.089,6.838,64,12.17,19.36
54.19,0.217,0.166,5.085,6.831,64,12.17,19.62
54.26,-0.044,0.145,5.082,6.823,64,12.17,19.87
54.32,-0.065,0.166,5.079,6.815,66,12.17,20.12
54.39,-0.048,0.186,5.075,6.807,66,12.17,20.29
54.45,-0.044,0.186,5.072,6.8,66,12.17,20.46
54.52,-0.037,0.228,5.07,6.791,66,12.17,20.65
54.58,-0.015,0.186,5.066,6.785,66,12.18,20.95
54.65,0.041,0.186,5.062,6.776,66,12.18,21.29
54.71,-0.022,0.166,5.059,6.77,66,12.18,21.59
54.77,-0.01892439024390244,0.331,5.056,6.761,66,12.18,21.91
54.84,-0.009,0.373,5.052,6.754,66,12.18,22.25
54.9,0.111,0.207,5.05,6.748,66,12.18,22.59
54.97,0.23,0.145,5.047,6.74,66,12.18,22.95
55.03,0.20098885848319,0.186,5.045,6.733,66,12.18,23.27
55.1,0.139,0.186,5.04,6.725,66,12.18,23.54
55.16,0.036,0.269,5.038,6.718,66,12.18,23.77
55.23,0.042,0.186,5.035,6.711,66,12.18,23.94
55.29,0.035,0.166,5.033,6.704,66,12.18,24.05
55.35,0.026,0.249,5.029,6.697,66,12.18,24.18
55.42,0.025,0.124,5.025,6.688,66,12.18,24.31
55.48,0.085,0.207,5.023,6.681,66,12.18,24.38
55.55,0.003,0.228,5.019,6.674,66,12.18,24.4
55.61,0.105,0.331,5.017,6.667,69,12.18,24.4
55.68,0.219,0.435,5.014,6.661,69,12.18,24.37
55.74,0.061,0.166,5.01,6.653,69,12.18,24.29
55.81,0.15,0.145,5.008,6.646,69,12.18,24.2
55.87,0.304,0.207,5.005,6.639,69,12.18,24.11
55.94,0.152,0.166,5.003,6.632,69,12.18,23.95
56.0,-0.041,0.186,4.999,6.626,69,12.18,23.77
56.06,-0.042,0.269,4.995,6.619,69,12.18,23.57
56.13,-0.071,0.228,4.993,6.611,69,12.18,23.28
56.19,-0.079,0.207,4.99,6.605,69,12.18,22.99
56.26,-0.088,0.186,4.988,6.597,69,12.18,22.71
56.32,-0.087,0.249,4.984,6.59,69,12.18,22.38
56.39,-0.04,0.207,4.98,6.584,69,12.18,22.07
56.45,-0.124,0.228,4.975,6.571,69,12.18,21.43
56.52,0.145,0.311,4.975,6.571,69,12.18,21.39
56.58,-0.072,0.269,4.972,6.564,69,12.18,21.09
56.65,-0.055,0.186,4.969,6.557,69,12.18,20.83
56.71,0.04,0.166,4.967,6.551,69,12.2,20.58
56.77,0.18,0.166,4.964,6.544,69,12.18,20.35
56.84,-0.008,0.29,4.962,6.539,69,12.18,20.14
56.9,-0.154,0.228,4.958,6.532,69,12.18,19.94
56.97,-0.15,0.145,4.955,6.525,69,12.18,19.71
57.03,-0.158,0.186,4.954,6.519,69,12.18,19.42
57.1,-0.165,0.207,4.951,6.512,69,12.18,19.17
57.16,-0.166,0.166,4.948,6.505,69,12.18,18.99
57.23,-0.165,0.249,4.946,6.499,69,12.18,18.84
57.29,-0.14,0.166,4.943,6.493,69,12.18,18.71
57.35,-0.117,0.207,4.94,6.487,69,12.18,18.61
57.42,-0.179,0.186,4.938,6.48,69,12.18,18.54
57.48,0.198,0.311,4.935,6.474,69,12.18,18.5
57.55,-0.199,0.228,4.932,6.467,69,12.18,18.47
57.61,-0.06,0.249,4.93,6.462,69,12.18,18.46
57.68,0.06,0.166,4.927,6.454,63,12.18,18.46
57.74,0.192,0.207,4.925,6.45,63,12.18,18.46
57.81,-0.048,0.207,4.922,6.443,63,12.18,18.46
57.87,-0.135,0.228,4.92,6.437,63,12.18,18.46
57.94,-0.123,0.186,4.917,6.431,63,12.18,18.43
58.0,-0.126,0.228,4.915,6.425,63,12.18,18.38
58.06,-0.128,0.249,4.912,6.42,63,12.18,18.35
58.13,-0.127,0.166,4.908,6.412,63,12.18,18.35
58.19,-0.123,0.186,4.906,6.407,63,12.18,18.35
58.26,-0.065,0.186,4.903,6.4,63,12.18,18.36
58.32,-0.114,0.145,4.901,6.395,63,12.17,18.35
58.39,-0.13,0.29,4.898,6.388,63,12.17,18.37
58.45,0.168,0.435,4.896,6.382,63,12.17,18.37
58.52,-0.059,0.124,4.893,6.377,63,12.17,18.39
58.58,0.02,0.186,4.891,6.371,63,12.17,18.4
58.65,0.167,0.166,4.888,6.365,63,12.17,18.41
58.71,0.158,0.207,4.886,6.36,63,12.17,18.44
58.77,-0.092,0.166,4.883,6.355,64,12.17,18.45
58.84,-0.102,0.145,4.881,6.349,64,12.17,18.46
58.9,-0.099,0.228,4.878,6.343,64,12.17,18.42
58.97,-0.109,0.145,4.876,6.338,64,12.17,18.36
59.03,-0.107,0.228,4.873,6.331,64,12.17,18.35
59.1,-0.103,0.186,4.872,6.325,64,12.17,18.35
59.16,-0.083,0.186,4.868,6.32,64,12.17,18.36
59.23,-0.043,0.166,4.866,6.314,64,12.17,18.42
59.29,-0.107,0.207,4.863,6.31,64,12.17,18.51
59.35,0.269,0.249,4.861,6.303,64,12.17,18.65
59.42,-0.126,0.394,4.859,6.298,64,12.17,18.86
59.48,0.015,0.145,4.856,6.293,64,12.17,19.11
59.55,0.135,0.186,4.854,6.288,64,12.17,19.35
59.61,0.287,0.249,4.851,6.28,64,12.17,19.65
59.68,0.066,0.228,4.849,6.275,64,12.17,19.94
59.74,-0.032,0.207,4.846,6.271,64,12.17,20.26
59.81,-0.019,0.207,4.844,6.266,64,12.17,20.53
59.87,-0.018,0.145,4.841,6.261,64,12.17,20.73
59.94,-0.012,0.228,4.839,6.256,64,12.17,21.01
60.0,-0.002,0.145,4.836,6.248,64,12.17,21.35
60.06,0.067,0.145,4.834,6.243,64,12.17,21.71
60.13,0.002,0.269,4.831,6.238,64,12.17,22.07
60.19,0.133,0.228,4.829,6.233,64,12.17,22.41
60.26,0.225,0.29,4.828,6.228,64,12.17,22.76
60.32,0.107,0.186,4.825,6.223,64,12.17,23.12
60.39,0.211,0.186,4.823,6.218,64,12.17,23.45
60.45,0.23103360910031023,0.228,4.82,6.211,64,12.17,23.74
60.52,0.238,0.228,4.818,6.206,64,12.17,23.98
60.58,0.055,0.311,4.815,6.201,64,12.17,24.2
60.65,0.056,0.228,4.813,6.196,64,12.17,24.36
60.71,0.047,0.166,4.81,6.191,64,12.17,24.46
60.77,0.034,0.29,4.808,6.186,64,12.17,24.55
60.84,0.036,0.186,4.805,6.181,64,12.17,24.63
60.9,0.084,0.166,4.804,6.176,64,12.17,24.65
60.97,-0.005,0.186,4.801,6.171,64,12.17,24.61
61.03,0.282,0.29,4.799,6.166,69,12.17,24.51
61.1,0.037,0.331,4.796,6.161,69,12.17,24.38
61.16,0.05,0.249,4.794,6.154,69,12.18,24.19
61.23,0.14,0.166,4.791,6.15,69,12.18,23.98
61.29,0.271,0.166,4.789,6.145,69,12.18,23.76
61.35,0.057,0.207,4.788,6.141,69,12.18,23.45
61.42,-0.088,0.207,4.785,6.136,69,12.18,23.05
61.48,-0.09,0.186,4.783,6.131,69,12.18,22.56
61.55,-0.106,0.124,4.78,6.126,69,12.18,21.98
61.61,-0.118,0.249,4.778,6.121,69,12.18,21.48
61.68,-0.128,0.166,4.775,6.116,69,12.18,21.1
61.74,-0.073,0.207,4.773,6.111,69,12.18,20.78
61.81,-0.129,0.186,4.771,6.104,69,12.18,20.48
61.87,-0.166,0.207,4.768,6.101,69,12.18,20.18
61.94,0.148,0.373,4.767,6.097,69,12.18,19.9
62.0,-0.106,0.207,4.764,6.092,69,12.18,19.66
62.06,-0.035,0.145,4.762,6.087,69,12.18,19.44
62.13,0.107,0.186,4.761,6.082,69,12.18,19.24
62.19,0.107,0.269,4.758,6.077,69,12.18,19.09
62.26,-0.147,0.186,4.756,6.072,69,12.18,18.97
62.32,-0.16,0.186,4.753,6.067,69,12.18,18.84
62.39,-0.158,0.228,4.752,6.062,69,12.18,18.65
62.45,-0.169,0.269,4.749,6.058,69,12.18,18.53
62.52,-0.171,0.186,4.747,6.052,69,12.18,18.47
62.58,-0.171,0.228,4.744,6.049,69,12.18,18.43
62.65,-0.102,0.207,4.742,6.044,69,12.18,18.41
62.71,-0.164,0.186,4.739,6.039,69,12.18,18.39
62.77,-0.155,0.228,4.737,6.037,69,12.18,18.38
62.84,0.103,0.394,4.736,6.032,69,12.17,18.37
62.9,-0.108,0.207,4.733,6.029,69,12.18,18.37
62.97,-0.021,0.145,4.732,6.026,69,12.17,18.38
63.03,0.132,0.186,4.729,6.022,67,12.17,18.4
63.1,0.087,0.186,4.728,6.019,67,12.17,18.41
63.16,-0.143,0.166,4.726,6.016,67,12.17,18.43
63.23,-0.144,0.145,4.723,6.012,67,12.17,18.44
63.29,-0.14,0.186,4.722,6.009,67,12.17,18.39
63.35,-0.147,0.207,4.719,6.005,67,12.17,18.34
63.42,-0.132,0.166,4.718,6.001,67,12.17,18.33
63.48,-0.113,0.145,4.716,5.997,67,12.17,18.33
63.55,-0.078,0.249,4.713,5.994,67,12.17,18.35
63.61,-0.156,0.166,4.711,5.99,67,12.17,18.35
63.68,0.189,0.414,4.709,5.985,67,12.18,18.35
63.74,-0.174,0.373,4.706,5.977,67,12.18,18.37
63.81,-0.055,0.166,4.706,5.976,67,12.18,18.37
63.87,0.057,0.145,4.703,5.974,68,12.18,18.39
63.94,0.212,0.186,4.702,5.97,68,12.18,18.41
64.0,0.013,0.207,4.699,5.967,68,12.18,18.43
64.06,-0.105,0.145,4.697,5.964,68,12.18,18.48
64.13,-0.088,0.207,4.696,5.96,68,12.18,18.54
64.19,-0.088,0.186,4.693,5.955,68,12.18,18.59
64.26,-0.086,0.207,4.692,5.952,68,12.18,18.71
64.32,-0.072,0.186,4.689,5.947,68,12.18,18.95
64.39,0.001,0.145,4.688,5.944,68,12.18,19.23
64.45,-0.064,0.207,4.686,5.94,68,12.18,19.53
64.52,0.053,0.228,4.682,5.935,68,12.18,19.78
64.58,0.147,0.331,4.681,5.932,68,12.18,20.07
64.65,0.032,0.186,4.679,5.927,68,12.18,20.36
64.71,0.134,0.166,4.677,5.922,68,12.18,20.67
64.77,0.294,0.166,4.676,5.92,68,12.18,20.98
64.84,0.179,0.145,4.674,5.915,68,12.18,21.32
64.9,-0.004,0.186,4.671,5.91,68,12.18,21.64
64.97,0.0,0.207,4.669,5.908,68,12.18,21.95
65.03,0.0,0.145,4.667,5.903,68,12.18,22.16
65.1,-0.005,0.186,4.665,5.9,68,12.18,22.34
65.16,0.018,0.186,4.662,5.895,68,12.18,22.57
65.23,0.045,0.186,4.661,5.892,68,12.17,22.76
65.29,-0.019,0.186,4.659,5.888,68,12.17,22.91
65.35,-0.03783177570093458,0.311,4.656,5.884,70,12.18,23.0
65.42,-0.045,0.269,4.655,5.88,70,12.18,23.05
65.48,0.09,0.228,4.652,5.878,70,12.18,23.08
65.55,0.208,0.186,4.65,5.873,70,12.17,23.11
65.61,0.327,0.166,4.649,5.869,70,12.17,23.12
65.68,0.071,0.269,4.646,5.865,70,12.18,23.05
65.74,-0.005,0.186,4.644,5.863,70,12.18,22.97
65.81,-0.002,0.145,4.641,5.858,56,12.17,22.83
65.87,-0.012,0.249,4.64,5.854,56,12.18,22.61
65.94,-0.019,0.166,4.637,5.85,56,12.17,22.51
66.0,-0.005,0.249,4.635,5.845,56,12.17,22.39
66.06,0.028,0.186,4.634,5.843,56,12.17,22.27
66.13,-0.051,0.228,4.631,5.838,56,12.17,22.13
66.19,-0.07954567307692308,0.414,4.629,5.835,56,12.17,21.94
66.26,-0.091,0.456,4.627,5.831,56,12.17,21.73
66.32,0.034,0.124,4.625,5.828,56,12.17,21.46
66.39,0.136,0.29,4.624,5.823,56,12.17,21.17
66.45,0.26,0.249,4.621,5.82,56,12.17,20.9
66.52,0.025,0.186,4.619,5.816,56,12.17,20.61
66.58,-0.08,0.228,4.617,5.812,56,12.17,20.33
66.65,-0.08,0.249,4.615,5.808,56,12.17,20.03
66.71,-0.094,0.186,4.614,5.803,56,12.17,19.66
66.77,-0.102,0.186,4.611,5.801,56,12.17,19.36
66.84,-0.104,0.207,4.609,5.796,56,12.17,19.14
66.9,-0.085,0.186,4.606,5.791,56,12.18,18.96
66.97,-0.046,0.207,4.605,5.788,56,12.17,18.81
67.03,-0.124,0.249,4.602,5.783,56,12.17,18.66
67.1,0.252,0.207,4.601,5.78,56,12.17,18.56
67.16,-0.164,0.373,4.599,5.776,56,12.17,18.51
67.23,-0.023,0.228,4.597,5.771,56,12.18,18.47
67.29,0.09,0.207,4.595,5.767,66,12.18,18.45
67.35,0.226,0.249,4.594,5.763,66,12.18,18.45
67.42,0.005,0.207,4.592,5.76,66,12.17,18.45
67.48,-0.103,0.207,4.589,5.756,66,12.18,18.45
67.55,-0.097,0.186,4.587,5.752,66,12.18,18.42
67.61,-0.106,0.207,4.585,5.748,66,12.18,18.37
67.68,-0.108,0.186,4.584,5.746,66,12.18,18.34
67.74,-0.108,0.145,4.582,5.741,66,12.17,18.33
67.81,-0.107,0.269,4.579,5.738,66,12.18,18.34
67.87,-0.043,0.228,4.578,5.734,66,12.18,18.34
67.94,-0.111,0.166,4.575,5.73,66,12.18,18.34
68.0,-0.1,0.311,4.573,5.726,66,12.17,18.35
68.06,0.15,0.352,4.572,5.721,66,12.18,18.36
68.13,-0.057,0.207,4.569,5.719,66,12.18,18.36
68.19,0.03,0.269,4.568,5.716,66,12.18,18.39
68.26,0.184,0.186,4.565,5.711,64,12.18,18.41
68.32,0.152,0.186,4.564,5.708,64,12.17,18.45
68.39,-0.079,0.249,4.562,5.704,64,12.18,18.54
68.45,-0.078,0.145,4.559,5.7,64,12.17,18.69
68.52,-0.073,0.145,4.559,5.696,64,12.17,18.83
68.58,-0.072,0.207,4.557,5.693,64,12.17,18.98
68.65,-0.066,0.166,4.554,5.689,64,12.17,19.23
68.71,-0.035,0.228,4.552,5.686,64,12.17,19.51
68.77,-0.001,0.186,4.55,5.683,64,12.18,19.8
68.84,-0.063,0.186,4.548,5.679,64,12.18,20.09
68.9,0.311,0.352,4.545,5.675,64,12.18,20.41
68.97,-0.07,0.269,4.544,5.671,64,12.18,20.72
69.03,0.065,0.166,4.542,5.669,64,12.18,21.06
69.1,0.191,0.145,4.54,5.665,64,12.18,21.4
69.16,0.306,0.186,4.538,5.661,64,12.18,21.75
69.23,0.058,0.145,4.537,5.658,64,12.18,22.09
69.29,-0.013,0.228,4.534,5.656,69,12.17,22.43
69.35,-0.01,0.186,4.533,5.652,69,12.17,22.66
69.42,-0.022,0.186,4.53,5.648,69,12.18,22.78
69.48,-0.027,0.29,4.529,5.644,69,12.18,22.91
69.55,0.002,0.186,4.527,5.642,69,12.18,23.03
69.61,0.006,0.186,4.524,5.638,69,12.17,23.11
69.68,-0.057,0.186,4.523,5.634,69,12.18,23.08
69.74,0.307,0.394,4.52,5.631,69,12.18,23.03
69.81,-0.066,0.186,4.519,5.627,69,12.17,22.96
69.87,0.043,0.166,4.517,5.624,69,12.17,22.86
69.94,0.163,0.456,4.515,5.621,69,12.18,22.72
70.0,0.254,0.228,4.513,5.618,69,12.18,22.54
70.06,-0.01,0.207,4.51,5.614,69,12.18,22.31
70.13,-0.072,0.166,4.509,5.611,71,12.18,22.06
70.19,-0.073,0.228,4.507,5.608,71,12.18,21.7
70.26,-0.087,0.207,4.506,5.604,71,12.18,21.29
70.32,-0.098,0.186,4.503,5.602,71,12.18,20.96
70.39,-0.083,0.186,4.502,5.598,71,12.18,20.67
70.45,-0.054,0.207,4.5,5.594,71,12.18,20.41
70.52,-0.133,0.249,4.498,5.592,71,12.18,20.17
70.58,0.243,0.269,4.496,5.589,71,12.18,19.91
70.65,-0.185,0.311,4.495,5.586,71,12.18,19.68
70.71,-0.049,0.269,4.492,5.582,71,12.18,19.48
70.77,0.059,0.124,4.491,5.579,70,12.18,19.31
70.84,0.183,0.186,4.49,5.577,70,12.18,19.15
70.9,-0.054,0.186,4.487,5.572,70,12.18,19.01
70.97,-0.149,0.269,4.485,5.569,70,12.18,18.87
71.03,-0.143,0.186,4.485,5.567,70,12.18,18.7
71.1,-0.152,0.207,4.481,5.564,70,12.18,18.51
71.16,-0.158,0.186,4.48,5.561,70,12.18,18.44
71.23,-0.16,0.29,4.478,5.559,70,12.18,18.38
71.29,-0.102,0.249,4.476,5.556,70,12.18,18.35
71.35,-0.14,0.166,4.475,5.554,70,12.18,18.33
71.42,-0.18,0.269,4.472,5.55,70,12.18,18.31
71.48,0.129,0.497,4.47,5.549,70,12.18,18.3
71.55,-0.109,0.269,4.468,5.545,70,12.18,18.3
71.61,-0.034,0.186,4.467,5.544,70,12.18,18.3
71.68,0.108,0.207,4.465,5.54,68,12.18,18.32
71.74,0.136,0.249,4.463,5.537,68,12.18,18.33
71.81,-0.124,0.249,4.461,5.535,68,12.18,18.34
71.87,-0.144,0.249,4.46,5.532,68,12.18,18.35
71.94,-0.138,0.228,4.457,5.53,68,12.18,18.31
72.0,-0.142,0.269,4.456,5.526,68,12.18,18.27
72.06,-0.139,0.186,4.455,5.522,68,12.18,18.25
72.13,-0.132,0.249,4.452,5.52,68,12.18,18.25
72.19,-0.057,0.29,4.45,5.517,68,12.18,18.32
72.26,-0.123,0.166,4.448,5.515,68,12.18,18.42
72.32,-0.035,0.311,4.447,5.512,68,12.18,18.57
72.39,0.101,0.352,4.445,5.509,68,12.18,18.82
72.45,-0.032,0.228,4.442,5.506,68,12.18,19.13
72.52,0.064,0.207,4.441,5.504,68,12.18,19.45
72.58,0.225,0.207,4.438,5.5,68,12.18,19.81
72.65,0.144,0.186,4.437,5.497,68,12.18,20.19
72.71,-0.057,0.145,4.435,5.495,67,12.18,20.57
72.77,-0.053,0.249,4.433,5.491,67,12.18,20.93
72.84,-0.052,0.228,4.432,5.489,67,12.18,21.24
72.9,-0.055,0.228,4.43,5.485,67,12.18,21.58
72.97,-0.027,0.166,4.428,5.482,67,12.18,22.0
73.03,-0.003,0.249,4.427,5.479,67,12.18,22.38
73.1,-0.072,0.207,4.425,5.475,67,12.18,22.75
73.16,0.315,0.331,4.423,5.473,67,12.18,23.01
73.23,-0.094,0.331,4.422,5.47,67,12.18,23.25
73.29,0.038,0.186,4.42,5.467,67,12.18,23.45
73.35,0.157,0.249,4.418,5.463,67,12.18,23.59
73.42,0.271,0.145,4.416,5.46,67,12.18,23.7
73.48,0.014,0.207,4.415,5.457,67,12.18,23.74
73.55,-0.057,0.186,4.413,5.454,73,12.17,23.79
73.61,-0.053,0.186,4.411,5.452,73,12.18,23.73
73.68,-0.063,0.207,4.409,5.449,73,12.18,23.63
73.74,-0.067,0.166,4.408,5.445,73,12.18,23.61
73.81,-0.043,0.207,4.405,5.443,73,12.18,23.54
73.87,-0.023,0.186,4.404,5.439,73,12.18,23.43
73.94,-0.096,0.186,4.403,5.437,73,12.18,23.31
74.0,0.293,0.352,4.4,5.433,73,12.18,23.18
74.06,-0.121,0.311,4.398,5.43,73,12.18,23.03
74.13,0.0,0.186,4.398,5.427,73,12.18,22.82
74.19,0.117,0.228,4.395,5.425,73,12.17,22.55
74.26,0.227,0.207,4.393,5.422,73,12.17,22.25
74.32,-0.027,0.186,4.39,5.419,73,12.18,21.89
74.39,-0.103,0.166,4.389,5.417,71,12.17,21.53
74.45,-0.102,0.228,4.388,5.413,71,12.17,21.08
74.52,-0.118,0.207,4.385,5.41,71,12.18,20.62
74.58,-0.127,0.207,4.384,5.407,71,12.18,20.22
74.65,-0.132,0.145,4.383,5.405,71,12.18,19.91
74.71,-0.093,0.186,4.38,5.402,71,12.18,19.63
74.77,-0.103,0.186,4.378,5.399,71,12.18,19.39
74.84,-0.159,0.166,4.376,5.397,71,12.18,19.14
74.9,0.165,0.477,4.375,5.394,71,12.18,18.95
74.97,-0.075,0.29,4.373,5.392,71,12.18,18.77
75.03,-0.014,0.29,4.371,5.388,71,12.18,18.65
75.1,0.089,0.207,4.37,5.387,67,12.18,18.57
75.16,0.179,0.249,4.368,5.383,67,12.18,18.54
75.23,-0.079,0.186,4.368,5.381,67,12.18,18.51
75.29,-0.128,0.166,4.364,5.376,67,12.18,18.43
75.35,-0.122,0.166,4.363,5.375,67,12.18,18.43
75.42,-0.131,0.207,4.361,5.372,67,12.18,18.36
75.48,-0.13,0.145,4.36,5.37,67,12.18,18.34
75.55,-0.129,0.124,4.358,5.367,67,12.18,18.33
75.61,-0.107,0.186,4.356,5.365,67,12.18,18.33
75.68,-0.062,0.207,4.354,5.361,67,12.18,18.33
75.74,-0.135,0.228,4.353,5.358,67,12.18,18.33
75.81,0.236,0.331,4.35,5.356,67,12.18,18.33
75.87,-0.171,0.29,4.349,5.353,67,12.18,18.34
75.94,-0.028,0.228,4.348,5.351,67,12.18,18.35
76.0,0.083,0.249,4.345,5.348,67,12.18,18.36
76.06,0.219,0.186,4.344,5.345,67,12.18,18.39
76.13,0.006,0.249,4.343,5.343,67,12.18,18.4
76.19,-0.098,0.166,4.34,5.34,65,12.18,18.42
76.26,-0.088,0.186,4.339,5.337,65,12.18,18.41
76.32,-0.09,0.228,4.338,5.335,65,12.18,18.35
76.39,-0.086,0.249,4.335,5.332,65,12.17,18.33
76.45,-0.082,0.186,4.333,5.328,65,12.18,18.38
76.52,-0.064,0.186,4.332,5.326,65,12.18,18.5
76.58,-0.005,0.249,4.331,5.323,65,12.17,18.66
76.65,-0.075,0.207,4.328,5.321,65,12.18,18.89
76.71,0.265,0.331,4.327,5.317,65,12.18,19.12
76.77,-0.07,0.311,4.324,5.316,65,12.17,19.38
76.84,0.036,0.228,4.323,5.312,65,12.18,19.66
76.9,0.144,0.228,4.321,5.31,65,12.18,19.95
76.97,0.293,0.186,4.319,5.307,65,12.18,20.28
77.03,0.115,0.166,4.317,5.305,65,12.18,20.61
77.1,-0.013,0.207,4.316,5.303,65,12.18,20.94
77.16,-0.005,0.186,4.313,5.3,65,12.18,21.22
77.23,-0.014,0.186,4.312,5.298,65,12.18,21.44
77.29,-0.018,0.228,4.311,5.295,65,12.18,21.73
77.35,0.019,0.228,4.308,5.293,65,12.18,22.1
77.42,0.008,0.207,4.307,5.289,65,12.18,22.41
77.48,-0.048,0.186,4.306,5.286,65,12.18,22.62
77.55,0.291,0.435,4.303,5.284,65,12.18,22.67
77.61,-0.022,0.269,4.301,5.281,65,12.18,22.63
77.68,0.064,0.207,4.301,5.279,65,12.18,22.5
77.74,0.186,0.207,4.298,5.276,65,12.18,22.36
77.81,0.242,0.145,4.296,5.274,65,12.18,22.18
77.87,-0.024,0.207,4.294,5.271,65,12.18,21.96
77.94,-0.067,0.166,4.293,5.269,73,12.18,21.73
78.0,-0.072,0.228,4.291,5.266,73,12.18,21.38
78.06,-0.089,0.186,4.289,5.264,73,12.18,20.96
78.13,-0.097,0.207,4.288,5.261,73,12.18,20.63
78.19,-0.036,0.207,4.286,5.258,73,12.18,20.36
78.26,-0.11,0.269,4.284,5.255,73,12.18,20.11
78.32,-0.112,0.249,4.282,5.253,73,12.18,19.87
78.39,0.14,0.394,4.281,5.25,73,12.18,19.61
78.45,-0.081,0.228,4.279,5.249,73,12.18,19.36
78.52,0.002,0.166,4.277,5.245,73,12.18,19.17
78.58,0.148,0.124,4.276,5.243,72,12.18,18.99
78.65,0.102,0.186,4.274,5.24,72,12.18,18.84
78.71,-0.121,0.186,4.273,5.239,72,12.18,18.71
78.77,-0.121,0.166,4.271,5.235,72,12.18,18.6
78.84,-0.123,0.186,4.269,5.234,72,12.18,18.49
78.9,-0.131,0.166,4.268,5.23,72,12.18,18.4
78.97,-0.132,0.207,4.266,5.228,72,12.18,18.35
79.03,-0.104,0.207,4.263,5.225,72,12.18,18.33
79.1,-0.12,0.145,4.262,5.223,72,12.18,18.33
79.16,-0.15,0.166,4.261,5.221,72,12.18,18.3
79.23,0.203,0.414,4.258,5.218,72,12.18,18.3
79.29,-0.144,0.249,4.257,5.216,72,12.18,18.3
79.35,-0.026,0.145,4.256,5.214,72,12.18,18.3
79.42,0.098,0.145,4.251,5.211,69,12.18,18.34
79.48,0.21,0.145,4.252,5.211,69,12.18,18.35
79.55,-0.036,0.228,4.251,5.208,69,12.18,18.36
79.61,-0.103,0.228,4.248,5.206,69,12.18,18.38
79.68,-0.096,0.228,4.247,5.203,69,12.17,18.35
79.74,-0.104,0.269,4.246,5.201,69,12.18,18.31
79.81,-0.105,0.228,4.244,5.198,69,12.18,18.29
79.87,-0.102,0.145,4.242,5.196,69,12.18,18.29
79.94,-0.033,0.207,4.24,5.194,69,12.18,18.3
80.0,-0.079,0.269,4.239,5.192,69,12.18,18.3
80.06,-0.097,0.207,4.237,5.189,69,12.18,18.3
80.13,0.188,0.373,4.235,5.188,69,12.18,18.32
80.19,-0.035,0.186,4.234,5.186,69,12.18,18.33
80.26,0.044,0.186,4.231,5.182,69,12.18,18.35
80.32,0.188,0.145,4.23,5.181,69,12.18,18.36
80.39,0.189,0.207,4.229,5.178,69,12.18,18.4
80.45,-0.053,0.166,4.226,5.176,69,12.18,18.41
80.52,-0.058,0.228,4.226,5.173,68,12.18,18.43
80.58,-0.055,0.166,4.224,5.172,68,12.18,18.44
80.65,-0.058,0.124,4.222,5.169,68,12.18,18.49
80.71,-0.057,0.186,4.221,5.167,68,12.18,18.63
80.77,-0.017,0.207,4.219,5.164,68,12.18,18.85
80.84,0.0,0.269,4.216,5.162,68,12.18,19.11
80.9,-0.049,0.186,4.215,5.159,68,12.18,19.36
80.97,0.297,0.435,4.214,5.157,68,12.18,19.61
81.03,-0.019,0.249,4.211,5.154,68,12.18,19.87
81.1,0.095,0.186,4.21,5.152,68,12.17,20.14
81.16,0.281,0.269,4.209,5.151,68,12.18,20.44
81.23,0.28,0.228,4.207,5.148,68,12.18,20.76
81.29,0.071,0.145,4.205,5.146,68,12.18,21.08
81.35,0.022,0.186,4.204,5.143,68,12.18,21.37
81.42,0.024,0.166,4.201,5.141,68,12.18,21.58
81.48,0.016,0.207,4.197,5.136,68,12.18,22.04
81.55,0.016,0.186,4.199,5.136,68,12.18,22.07
81.61,0.07,0.207,4.196,5.133,68,12.18,22.37
81.68,0.04,0.186,4.195,5.132,68,12.18,22.66
81.74,-0.001,0.269,4.194,5.129,68,12.18,22.89
81.81,0.01572133406835722,0.373,4.191,5.127,69,12.18,23.08
81.87,0.054,0.249,4.191,5.125,69,12.18,23.24
81.94,0.133,0.269,4.189,5.122,69,12.18,23.35
82.0,0.265,0.228,4.186,5.12,69,12.18,23.43
82.06,0.298,0.269,4.186,5.117,69,12.18,23.47
82.13,0.039,0.207,4.184,5.116,69,12.18,23.47
82.19,0.012,0.249,4.182,5.114,69,12.18,23.46
82.26,0.007,0.186,4.181,5.111,69,12.18,23.36
82.32,-0.006,0.249,4.179,5.11,55,12.18,23.27
82.39,-0.015,0.249,4.177,5.107,55,12.18,23.27
82.45,-0.011,0.166,4.176,5.105,55,12.18,23.17
82.52,0.044,0.228,4.174,5.101,55,12.18,23.06
82.58,-0.042,0.186,4.172,5.1,55,12.18,22.91
82.65,0.117,0.269,4.17,5.097,55,12.18,22.76
82.71,0.105,0.311,4.169,5.095,55,12.18,22.56
82.77,0.007,0.228,4.166,5.092,55,12.18,22.31
82.84,0.091,0.228,4.165,5.091,55,12.18,22.03
82.9,0.228,0.186,4.164,5.089,55,12.18,21.72
82.97,0.105,0.145,4.161,5.086,55,12.18,21.42
83.03,-0.084,0.269,4.161,5.084,55,12.18,21.11
83.1,-0.087,0.228,4.159,5.081,55,12.18,20.8
83.16,-0.1,0.186,4.156,5.079,55,12.18,20.4
83.23,-0.113,0.166,4.156,5.077,55,12.18,20.04
83.29,-0.12,0.228,4.154,5.075,55,12.18,19.78
83.35,-0.126,0.166,4.153,5.072,55,12.18,19.55
83.42,-0.123,0.166,4.152,5.07,55,12.18,19.34
83.48,-0.065,0.269,4.15,5.067,55,12.18,19.13
83.55,-0.146,0.186,4.148,5.066,55,12.18,18.93
83.61,0.017,0.29,4.147,5.064,55,12.18,18.75
83.68,-0.007,0.394,4.144,5.061,55,12.18,18.61
83.74,-0.077,0.228,4.144,5.059,55,12.18,18.54
83.81,0.015,0.166,4.142,5.056,62,12.18,18.5
83.87,0.164,0.166,4.14,5.055,62,12.18,18.47
83.94,0.062,0.207,4.139,5.052,62,12.18,18.45
84.0,-0.133,0.186,4.137,5.05,62,12.18,18.44
84.06,-0.129,0.228,4.135,5.047,62,12.18,18.41
84.13,-0.13,0.269,4.134,5.046,62,12.18,18.34
84.19,-0.138,0.186,4.132,5.044,62,12.18,18.3
84.26,-0.135,0.228,4.13,5.041,62,12.18,18.28
84.32,-0.133,0.228,4.129,5.039,62,12.18,18.29
84.39,-0.129,0.207,4.127,5.037,62,12.18,18.29
84.45,-0.069,0.166,4.127,5.035,62,12.17,18.28
84.52,-0.126,0.166,4.124,5.034,62,12.18,18.29
84.58,-0.119,0.29,4.123,5.032,62,12.18,18.3
84.65,0.136,0.29,4.122,5.029,62,12.18,18.3
84.71,-0.073,0.207,4.119,5.028,62,12.18,18.33
84.77,0.01,0.228,4.118,5.025,62,12.18,18.34
84.84,0.152,0.145,4.117,5.023,60,12.18,18.35
84.9,0.14,0.186,4.115,5.022,60,12.18,18.37
84.97,-0.099,0.207,4.114,5.019,60,12.18,18.38
85.03,-0.103,0.207,4.112,5.017,60,12.18,18.39
85.1,-0.1,0.186,4.11,5.014,60,12.18,18.35
85.16,-0.102,0.186,4.109,5.013,60,12.18,18.34
85.23,-0.097,0.186,4.108,5.01,60,12.18,18.44
85.29,-0.09,0.186,4.105,5.008,60,12.18,18.55
85.35,-0.063,0.186,4.104,5.007,60,12.18,18.75
85.42,-0.022,0.207,4.102,5.004,60,12.18,18.99
85.48,-0.084,0.186,4.1,5.002,60,12.18,19.21
85.55,0.29,0.311,4.099,4.999,60,12.18,19.43
85.61,-0.096,0.311,4.097,4.998,60,12.18,19.67
85.68,0.039,0.249,4.097,4.995,60,12.18,19.89
85.74,0.156,0.269,4.094,4.994,60,12.18,20.13
85.81,0.292,0.186,4.093,4.992,60,12.18,20.4
85.87,0.069,0.207,4.09,4.989,60,12.18,20.64
85.94,-0.021,0.145,4.089,4.987,64,12.18,20.9
86.0,-0.012,0.166,4.088,4.985,64,12.18,21.09
86.06,-0.017,0.145,4.087,4.983,64,12.18,21.21
86.13,-0.016,0.207,4.085,4.982,64,12.18,21.39
86.19,-0.011,0.186,4.083,4.979,64,12.18,21.66
86.26,0.054,0.186,4.082,4.978,64,12.18,21.93
86.32,-0.002,0.207,4.079,4.974,64,12.18,22.17
86.39,0.007,0.29,4.078,4.973,64,12.18,22.37
86.45,0.283,0.394,4.077,4.97,64,12.18,22.58
86.52,0.052,0.186,4.075,4.969,64,12.18,22.78
86.58,0.135,0.186,4.074,4.967,64,12.18,22.95
86.65,0.283,0.29,4.072,4.965,64,12.18,23.08
86.71,0.238,0.166,4.072,4.962,64,12.18,23.13
86.77,0.001,0.166,4.069,4.96,64,12.18,23.15
86.84,-0.01,0.207,4.068,4.959,68,12.18,23.14
86.9,-0.015,0.207,4.067,4.957,68,12.18,22.99
86.97,-0.032,0.166,4.065,4.954,68,12.18,22.89
87.03,-0.04,0.166,4.063,4.953,68,12.18,22.82
87.1,-0.031,0.207,4.061,4.951,68,12.18,22.65
87.16,0.007,0.145,4.06,4.948,68,12.18,22.49
87.23,-0.074,0.166,4.058,4.947,68,12.18,22.26
87.29,0.305,0.352,4.057,4.945,68,12.18,22.01
87.35,-0.119,0.394,4.056,4.942,68,12.18,21.78
87.42,0.002,0.228,4.055,4.941,68,12.18,21.52
87.48,0.103,0.145,4.053,4.938,68,12.18,21.23
87.55,0.237,0.166,4.051,4.936,68,12.18,20.94
87.61,0.018,0.207,4.05,4.935,68,12.18,20.68
87.68,-0.106,0.207,4.047,4.932,68,12.18,20.42
87.74,-0.103,0.228,4.047,4.93,68,12.18,20.13
87.81,-0.117,0.228,4.045,4.928,68,12.18,19.77
87.87,-0.126,0.228,4.045,4.926,68,12.18,19.49
87.94,-0.13,0.228,4.042,4.925,68,12.18,19.28
88.0,-0.131,0.207,4.042,4.922,68,12.18,19.1
88.06,-0.069,0.249,4.04,4.92,68,12.18,18.96
88.13,-0.118,0.166,4.038,4.918,68,12.18,18.8
88.19,-0.141,0.311,4.037,4.916,68,12.18,18.67
88.26,0.157,0.58,4.035,4.915,68,12.18,18.56
88.32,-0.076,0.186,4.033,4.912,68,12.18,18.51
88.39,0.002,0.249,4.032,4.911,68,12.18,18.47
88.45,0.15,0.186,4.031,4.908,64,12.18,18.45
88.52,0.166,0.331,4.03,4.907,64,12.18,18.44
88.58,-0.094,0.186,4.027,4.905,64,12.18,18.42
88.65,-0.109,0.186,4.027,4.902,64,12.18,18.41
88.71,-0.107,0.186,4.025,4.901,64,12.18,18.35
88.77,-0.118,0.331,4.023,4.9,64,12.18,18.3
88.84,-0.121,0.269,4.022,4.897,64,12.18,18.28
88.9,-0.122,0.249,4.021,4.895,64,12.18,18.28
88.97,-0.115,0.249,4.02,4.892,64,12.18,18.29
89.03,-0.053,0.249,4.017,4.891,64,12.18,18.28
89.1,-0.127,0.249,4.016,4.89,64,12.18,18.28
89.16,0.007,0.249,4.015,4.887,64,12.18,18.29
89.23,0.028,0.352,4.013,4.885,64,12.18,18.3
89.29,-0.059,0.166,4.012,4.883,64,12.18,18.31
89.35,0.032,0.269,4.011,4.882,63,12.18,18.33
89.42,0.184,0.186,4.01,4.88,63,12.18,18.34
89.48,0.097,0.249,4.007,4.877,63,12.18,18.36
89.55,-0.111,0.166,4.006,4.876,63,12.18,18.38
89.61,-0.11,0.186,4.005,4.873,63,12.18,18.37
89.68,-0.109,0.166,4.003,4.872,63,12.18,18.32
89.74,-0.117,0.207,4.002,4.87,63,12.18,18.27
89.81,-0.114,0.228,4.001,4.867,63,12.18,18.26
89.87,-0.111,0.166,4.0,4.867,63,12.18,18.28
89.94,-0.083,0.166,3.997,4.865,63,12.18,18.35
90.0,-0.05,0.228,3.996,4.862,63,12.18,18.43
90.06,-0.111,0.207,3.995,4.86,63,12.18,18.55
90.13,0.249,0.373,3.993,4.86,63,12.18,18.69
90.19,-0.122,0.373,3.992,4.858,63,12.18,18.91
90.26,0.005,0.124,3.99,4.855,63,12.18,19.14
90.32,0.123,0.207,3.99,4.854,63,12.18,19.38
90.39,0.26,0.186,3.987,4.851,63,12.18,19.64
90.45,0.026,0.207,3.986,4.85,63,12.18,19.86
90.52,-0.066,0.166,3.985,4.848,63,12.18,20.12
90.58,-0.057,0.207,3.983,4.846,63,12.18,20.29
90.65,-0.061,0.249,3.982,4.844,63,12.18,20.38
90.71,-0.06,0.186,3.98,4.841,63,12.18,20.55
90.77,-0.041,0.145,3.979,4.84,63,12.18,20.79
90.84,0.01,0.207,3.978,4.838,63,12.18,21.06
90.9,-0.064,0.249,3.976,4.835,63,12.18,21.32
90.97,0.302,0.331,3.975,4.834,63,12.18,21.55
91.03,-0.069,0.29,3.973,4.833,63,12.18,21.79
91.1,0.045,0.166,3.973,4.83,63,12.18,22.04
91.16,0.154,0.207,3.97,4.828,63,12.18,22.28
91.23,0.302,0.228,3.97,4.826,63,12.18,22.51
91.29,0.101,0.145,3.968,4.825,63,12.18,22.71
91.35,-0.032,0.186,3.968,4.824,70,12.18,22.89
91.42,-0.031,0.186,3.965,4.821,70,12.18,23.01
91.48,-0.036,0.228,3.964,4.82,70,12.18,23.07
91.55,-0.04,0.311,3.963,4.818,70,12.18,23.17
91.61,-0.036,0.207,3.96,4.815,70,12.18,23.27
91.68,0.025,0.186,3.959,4.814,70,12.18,23.36
91.74,-0.054,0.249,3.958,4.813,70,12.18,23.43
91.81,0.176,0.414,3.956,4.81,70,12.18,23.45
91.87,0.048,0.456,3.955,4.808,70,12.18,23.47
91.94,0.014,0.228,3.953,4.808,70,12.18,23.46
92.0,0.106,0.207,3.953,4.805,70,12.18,23.41
92.06,0.253,0.166,3.95,4.803,70,12.18,23.36
92.13,0.101,0.249,3.95,4.801,70,12.18,23.23
92.19,-0.087,0.124,3.948,4.8,70,12.18,23.04
92.26,-0.093,0.166,3.946,4.798,70,12.18,22.8
92.32,-0.11,0.166,3.945,4.796,70,12.18,22.38
92.39,-0.126,0.228,3.943,4.795,70,12.18,21.94
92.45,-0.137,0.228,3.943,4.791,70,12.18,21.54
92.52,-0.121,0.228,3.941,4.79,70,12.18,21.15
92.58,-0.088,0.186,3.94,4.789,70,12.18,20.78
92.65,-0.166,0.228,3.938,4.788,70,12.18,20.42
92.71,0.215,0.373,3.938,4.785,70,12.18,20.05
92.77,-0.21,0.331,3.935,4.783,70,12.18,19.73
92.84,-0.076,0.186,3.935,4.781,70,12.18,19.47
92.9,0.034,0.207,3.933,4.78,67,12.18,19.25
92.97,0.175,0.186,3.931,4.778,67,12.18,19.07
93.03,-0.05,0.228,3.93,4.776,67,12.18,18.91
93.1,-0.163,0.228,3.929,4.775,67,12.18,18.77
93.16,-0.156,0.186,3.928,4.773,67,12.18,18.61
93.23,-0.164,0.249,3.925,4.772,67,12.18,18.48
93.29,-0.167,0.228,3.925,4.769,67,12.18,18.41
93.35,-0.165,0.228,3.923,4.768,67,12.18,18.36
93.42,-0.147,0.249,3.923,4.766,67,12.18,18.33
93.48,-0.097,0.207,3.92,4.764,67,12.18,18.32
93.55,-0.171,0.186,3.92,4.763,67,12.18,18.3
93.61,0.191,0.311,3.918,4.761,67,12.18,18.29
93.68,-0.199,0.352,3.916,4.759,67,12.18,18.28
93.74,-0.07,0.207,3.915,4.758,67,12.18,18.29
93.81,0.04,0.186,3.914,4.756,65,12.18,18.3
93.87,0.196,0.228,3.913,4.754,65,12.18,18.32
93.94,0.01,0.145,3.911,4.753,65,12.18,18.34
94.0,-0.129,0.186,3.91,4.751,65,12.18,18.35
94.06,-0.118,0.352,3.909,4.751,65,12.18,18.34
94.13,-0.122,0.249,3.908,4.747,65,12.18,18.29
94.19,-0.126,0.186,3.906,4.746,65,12.18,18.25
94.26,-0.124,0.207,3.905,4.743,65,12.18,18.25
94.32,-0.121,0.311,3.903,4.742,65,12.18,18.25
94.39,-0.063,0.228,3.903,4.741,65,12.18,18.27
94.45,-0.093,0.166,3.9,4.738,65,12.18,18.26
94.52,-0.137,0.145,3.9,4.737,65,12.18,18.28
94.58,0.171,0.435,3.898,4.736,65,12.18,18.29
94.65,-0.069,0.186,3.898,4.733,65,12.18,18.3
94.71,0.004,0.166,3.895,4.733,65,12.18,18.31
94.77,0.147,0.228,3.895,4.731,65,12.18,18.33
94.84,0.212,0.145,3.893,4.728,65,12.18,18.35
94.9,-0.056,0.249,3.892,4.727,65,12.18,18.36
94.97,-0.086,0.207,3.891,4.726,64,12.18,18.42
95.03,-0.078,0.186,3.891,4.723,64,12.18,18.46
95.1,-0.08,0.311,3.888,4.722,64,12.18,18.5
95.16,-0.073,0.145,3.888,4.721,64,12.18,18.61
95.23,-0.065,0.207,3.886,4.718,64,12.18,18.81
95.29,0.004,0.166,3.884,4.717,64,12.18,19.08
95.35,-0.05,0.207,3.883,4.716,64,12.18,19.34
95.42,-0.044,0.249,3.882,4.713,64,12.18,19.58
95.48,0.232,0.477,3.881,4.712,64,12.18,19.84
95.55,0.016,0.166,3.878,4.711,64,12.18,20.11
95.61,0.103,0.228,3.878,4.708,64,12.18,20.41
95.68,0.256,0.228,3.876,4.706,64,12.18,20.71
95.74,0.242,0.228,3.876,4.706,64,12.18,21.01
95.81,0.0,0.269,3.873,4.703,64,12.18,21.32
95.87,-0.009,0.186,3.873,4.702,64,12.18,21.6
95.94,-0.01,0.249,3.871,4.701,64,12.18,21.78
96.0,-0.017,0.186,3.871,4.698,64,12.18,21.96
96.06,-0.016,0.249,3.868,4.697,64,12.18,22.22
96.13,0.031,0.166,3.868,4.696,64,12.18,22.43
96.19,0.006,0.145,3.866,4.694,64,12.18,22.61
96.26,-0.039,0.166,3.866,4.693,67,12.18,22.69
96.32,0.301,0.456,3.864,4.691,67,12.18,22.71
96.39,0.015,0.207,3.863,4.689,67,12.18,22.68
96.45,0.094,0.166,3.861,4.688,67,12.18,22.63
96.52,0.225,0.269,3.861,4.687,67,12.18,22.54
96.58,0.283,0.207,3.858,4.686,67,12.18,22.42
96.65,0.009,0.269,3.858,4.684,67,12.18,22.27
96.71,-0.033,0.207,3.857,4.682,67,12.18,22.07
96.77,-0.036,0.186,3.856,4.681,67,12.18,21.72
96.84,-0.058,0.124,3.854,4.68,67,12.18,21.26
96.9,-0.07,0.186,3.853,4.679,67,12.18,20.87
96.97,-0.068,0.166,3.851,4.676,67,12.18,20.52
97.03,-0.019,0.228,3.849,4.675,67,12.18,20.21
97.1,-0.106,0.186,3.848,4.674,67,12.18,19.93
97.16,0.147,0.29,3.848,4.671,67,12.18,19.65
97.23,-0.056,0.352,3.846,4.67,67,12.18,19.39
97.29,-0.044,0.186,3.846,4.669,67,12.18,19.18
97.35,0.05,0.249,3.844,4.667,67,12.18,19.0
97.42,0.205,0.207,3.843,4.665,67,12.18,18.86
97.48,-0.039,0.249,3.842,4.664,67,12.18,18.73
97.55,-0.116,0.166,3.841,4.662,67,12.18,18.64
97.61,-0.109,0.228,3.839,4.661,67,12.18,18.57
97.68,-0.113,0.186,3.838,4.66,67,12.18,18.47
97.74,-0.118,0.186,3.837,4.659,67,12.18,18.4
97.81,-0.117,0.207,3.834,4.654,67,12.18,18.33
97.87,-0.113,0.249,3.834,4.655,67,12.18,18.33
97.94,-0.081,0.186,3.833,4.654,67,12.18,18.33
98.0,-0.056,0.145,3.833,4.651,67,12.2,18.3
98.06,-0.121,0.207,3.831,4.65,67,12.18,18.3
98.13,0.229,0.373,3.831,4.649,67,12.18,18.3
98.19,-0.124,0.269,3.828,4.646,67,12.18,18.3
98.26,-0.006,0.166,3.828,4.645,67,12.18,18.32
98.32,0.114,0.166,3.826,4.644,67,12.18,18.33
98.39,0.247,0.166,3.826,4.642,67,12.18,18.35
98.45,0.004,0.166,3.823,4.641,67,12.18,18.36
98.52,-0.086,0.228,3.823,4.639,63,12.18,18.37
98.58,-0.08,0.186,3.822,4.639,63,12.18,18.34
98.65,-0.09,0.166,3.821,4.636,63,12.18,18.29
98.71,-0.094,0.186,3.819,4.635,63,12.2,18.25
98.77,-0.095,0.186,3.818,4.634,63,12.18,18.25
98.84,-0.093,0.228,3.816,4.631,63,12.18,18.27
98.9,-0.033,0.186,3.816,4.63,63,12.2,18.28
98.97,-0.079,0.186,3.816,4.629,63,12.18,18.28
99.03,-0.105,0.228,3.813,4.626,63,12.2,18.29
99.1,0.192,0.414,3.813,4.626,63,12.18,18.29
99.16,-0.04,0.207,3.811,4.624,63,12.18,18.3
99.23,0.034,0.249,3.811,4.622,63,12.18,18.33
99.29,0.178,0.166,3.808,4.621,63,12.18,18.34
99.35,0.22,0.207,3.807,4.62,63,12.18,18.36
99.42,-0.045,0.186,3.806,4.619,63,12.18,18.38
99.48,-0.066,0.228,3.806,4.616,63,12.2,18.39
99.55,-0.06,0.166,3.803,4.615,63,12.18,18.39
99.61,-0.064,0.186,3.803,4.614,63,12.18,18.41
99.68,-0.06,0.207,3.801,4.611,63,12.18,18.5
99.74,-0.055,0.145,3.801,4.61,63,12.18,18.63
99.81,0.005,0.29,3.799,4.609,63,12.2,18.85
99.87,-0.024,0.186,3.799,4.607,63,12.18,19.08
99.94,-0.058,0.249,3.796,4.605,63,12.18,19.31
100.0,0.268,0.331,3.796,4.604,63,12.18,19.56
100.06,0.021,0.228,3.794,4.604,63,12.18,19.82
100.13,0.099,0.186,3.794,4.601,63,12.18,20.09
100.19,0.243,0.228,3.791,4.6,63,12.18,20.35
100.26,0.3,0.29,3.791,4.598,63,12.18,20.65
100.32,0.035,0.249,3.789,4.597,63,12.18,20.93
100.39,0.008,0.228,3.789,4.594,63,12.18,21.21
100.45,0.009,0.186,3.787,4.594,63,12.18,21.4
100.52,0.0,0.207,3.786,4.592,63,12.18,21.57
100.58,-0.004,0.269,3.785,4.59,63,12.18,21.83
100.65,0.051,0.145,3.784,4.589,63,12.18,22.08
100.71,0.001,0.228,3.782,4.587,63,12.18,22.32
100.77,-0.035,0.186,3.781,4.587,66,12.2,22.45
100.84,0.309,0.456,3.781,4.585,66,12.18,22.55
100.9,0.027,0.207,3.779,4.583,66,12.18,22.63
100.97,0.102,0.249,3.779,4.582,66,12.18,22.66
101.03,0.241,0.207,3.776,4.579,66,12.2,22.64
101.1,0.269,0.166,3.776,4.578,66,12.18,22.59
101.16,-0.004,0.166,3.774,4.577,66,12.18,22.48
101.23,-0.031,0.145,3.774,4.575,66,12.2,22.41
101.29,-0.035,0.207,3.772,4.574,66,12.18,22.17
101.35,-0.045,0.228,3.771,4.572,66,12.18,21.94
101.42,-0.052,0.207,3.771,4.572,66,12.18,21.85
101.48,-0.041,0.166,3.769,4.57,66,12.2,21.73
101.55,-0.004,0.166,3.767,4.569,66,12.2,21.61
101.61,-0.081,0.166,3.766,4.567,66,12.18,21.44
101.68,0.299,0.373,3.766,4.565,66,12.18,21.24
101.74,-0.128,0.311,3.764,4.564,66,12.18,21.02
101.81,-0.003,0.249,3.764,4.562,66,12.18,20.83
101.87,0.099,0.207,3.761,4.562,66,12.18,20.62
101.94,0.241,0.249,3.761,4.559,66,12.18,20.43
102.0,0.03,0.145,3.759,4.558,66,12.18,20.2
102.06,-0.098,0.207,3.759,4.557,66,12.18,20.0
102.13,-0.095,0.186,3.759,4.554,66,12.18,19.74
102.19,-0.105,0.207,3.756,4.554,66,12.18,19.42
102.26,-0.112,0.166,3.756,4.552,66,12.18,19.15
102.32,-0.116,0.166,3.755,4.55,66,12.18,18.98
102.39,-0.116,0.166,3.754,4.549,66,12.18,18.82
102.45,-0.1,0.207,3.754,4.548,66,12.18,18.7
102.52,-0.058,0.207,3.751,4.545,66,12.18,18.59
102.58,-0.129,0.207,3.751,4.544,66,12.18,18.53
102.65,0.229,0.29,3.749,4.543,66,12.18,18.47
102.71,-0.158,0.352,3.749,4.542,66,12.18,18.45
102.77,-0.037,0.186,3.749,4.539,66,12.18,18.42
102.84,0.068,0.145,3.746,4.539,61,12.18,18.4
102.9,0.225,0.166,3.746,4.538,61,12.18,18.4
102.97,0.055,0.207,3.745,4.537,61,12.18,18.39
103.03,-0.1,0.249,3.744,4.534,61,12.18,18.39
103.1,-0.092,0.166,3.742,4.533,61,12.18,18.35
103.16,-0.094,0.186,3.741,4.532,61,12.18,18.3
103.23,-0.098,0.186,3.741,4.529,61,12.18,18.27
103.29,-0.098,0.186,3.739,4.527,61,12.18,18.25
103.35,-0.094,0.186,3.739,4.527,61,12.18,18.25
103.42,-0.092,0.166,3.737,4.525,61,12.18,18.26
103.48,-0.031,0.166,3.736,4.524,61,12.18,18.25
103.55,-0.085,0.207,3.735,4.523,61,12.2,18.26
103.61,-0.085,0.269,3.734,4.522,61,12.18,18.28
103.68,0.191,0.497,3.734,4.52,61,12.2,18.28
103.74,-0.03,0.186,3.731,4.519,61,12.18,18.3
103.81,0.047,0.166,3.731,4.518,61,12.2,18.31
103.87,0.193,0.269,3.729,4.517,61,12.18,18.33
103.94,0.209,0.166,3.729,4.514,61,12.2,18.35
104.0,-0.056,0.249,3.727,4.514,61,12.18,18.35
104.06,-0.074,0.186,3.726,4.512,60,12.18,18.36
104.13,-0.072,0.166,3.726,4.512,60,12.18,18.31
104.19,-0.082,0.145,3.725,4.509,60,12.2,18.25
104.26,-0.081,0.207,3.724,4.509,60,12.18,18.24
104.32,-0.077,0.186,3.724,4.507,60,12.18,18.24
104.39,-0.075,0.186,3.721,4.506,60,12.2,18.25
104.45,-0.041,0.186,3.721,4.505,60,12.18,18.26
104.52,-0.028,0.166,3.719,4.503,60,12.18,18.32
104.58,-0.076,0.228,3.719,4.501,60,12.18,18.39
104.65,0.269,0.394,3.717,4.5,60,12.18,18.49
104.71,-0.06,0.249,3.716,4.498,60,12.18,18.6
104.77,0.044,0.186,3.716,4.497,60,12.18,18.75
104.84,0.17,0.186,3.714,4.496,60,12.18,18.93
104.9,0.309,0.186,3.714,4.495,60,12.18,19.14
104.97,0.059,0.186,3.713,4.492,60,12.18,19.35
105.03,-0.026,0.29,3.712,4.492,60,12.18,19.56
105.1,-0.015,0.207,3.71,4.49,60,12.18,19.7
105.16,-0.02,0.269,3.709,4.49,60,12.18,19.8
105.23,-0.018,0.207,3.708,4.487,60,12.18,19.97
105.29,-0.015,0.186,3.707,4.486,60,12.18,20.19
105.35,0.003,0.207,3.705,4.485,60,12.18,20.45
105.42,0.049,0.228,3.704,4.483,60,12.18,20.71
105.48,-0.016,0.166,3.703,4.482,60,12.18,20.94
105.55,-0.025025862068965517,0.311,3.702,4.481,60,12.18,21.2
105.61,-0.028,0.249,3.702,4.48,60,12.18,21.47
105.68,0.085,0.166,3.7,4.477,60,12.18,21.7
105.74,0.187,0.207,3.699,4.476,60,12.18,21.9
105.81,0.1786527266028003,0.186,3.699,4.475,60,12.18,22.11
105.87,0.154,0.207,3.698,4.473,60,12.18,22.32
105.94,0.005,0.166,3.697,4.472,65,12.18,22.49
106.0,0.004,0.166,3.695,4.471,65,12.18,22.55
106.06,-0.008,0.166,3.694,4.47,65,12.18,22.52
106.13,-0.016,0.186,3.694,4.468,65,12.18,22.52
106.19,-0.024,0.207,3.693,4.467,65,12.18,22.51
106.26,-0.008,0.228,3.692,4.466,65,12.18,22.44
106.32,0.018,0.207,3.69,4.465,65,12.18,22.35
106.39,-0.054,0.186,3.689,4.462,65,12.18,22.21
106.45,-0.07771457489878542,0.29,3.688,4.461,65,12.18,22.09
106.52,-0.087,0.269,3.687,4.46,65,12.18,21.99
106.58,0.038,0.166,3.687,4.458,65,12.2,21.89
106.65,0.145,0.228,3.684,4.457,65,12.18,21.76
106.71,0.289,0.207,3.684,4.455,65,12.18,21.64
106.77,0.057,0.166,3.684,4.455,65,12.18,21.45
106.84,-0.064,0.228,3.682,4.452,67,12.2,21.24
106.9,-0.065,0.228,3.682,4.452,67,12.18,20.94
106.97,-0.079,0.207,3.679,4.45,67,12.18,20.56
107.03,-0.089,0.186,3.679,4.45,67,12.18,20.25
107.1,-0.095,0.207,3.678,4.447,67,12.18,19.98
107.16,-0.098,0.166,3.677,4.446,67,12.18,19.76
107.23,-0.084,0.186,3.675,4.445,67,12.18,19.57
107.29,-0.059,0.29,3.674,4.442,67,12.18,19.36
107.35,-0.128,0.186,3.674,4.442,67,12.18,19.17
107.42,0.252,0.373,3.673,4.44,67,12.18,18.99
107.48,-0.173,0.269,3.672,4.438,67,12.2,18.86
107.55,-0.043,0.249,3.672,4.437,67,12.18,18.75
107.61,0.059,0.207,3.669,4.436,62,12.18,18.65
107.68,0.217,0.186,3.669,4.435,62,12.18,18.6
107.74,0.027,0.207,3.668,4.433,62,12.18,18.55
107.81,-0.125,0.207,3.667,4.432,62,12.18,18.51
107.87,-0.119,0.249,3.667,4.43,62,12.2,18.44
107.94,-0.125,0.207,3.665,4.43,62,12.2,18.35
108.0,-0.132,0.249,3.664,4.428,62,12.18,18.3
108.06,-0.132,0.228,3.664,4.426,62,12.18,18.29
108.13,-0.131,0.166,3.662,4.425,62,12.2,18.28
108.19,-0.129,0.228,3.662,4.425,62,12.2,18.28
108.26,-0.101,0.228,3.66,4.422,62,12.18,18.26
108.32,-0.084,0.186,3.659,4.422,62,12.2,18.28
108.39,-0.14,0.186,3.659,4.42,62,12.2,18.28
108.45,0.222,0.373,3.657,4.419,62,12.18,18.29
108.52,-0.16,0.331,3.657,4.418,62,12.18,18.3
108.58,-0.035,0.186,3.654,4.416,62,12.18,18.32
108.65,0.077,0.186,3.654,4.415,58,12.2,18.33
108.71,0.227,0.145,3.654,4.414,58,12.18,18.35
108.77,0.005,0.207,3.652,4.413,58,12.18,18.36
108.84,-0.117,0.228,3.652,4.41,58,12.2,18.37
108.9,-0.11,0.166,3.649,4.41,58,12.18,18.34
108.97,-0.114,0.186,3.649,4.409,58,12.18,18.27
109.03,-0.117,0.269,3.649,4.408,58,12.18,18.25
109.1,-0.116,0.145,3.647,4.405,58,12.2,18.29
109.16,-0.115,0.207,3.647,4.405,58,12.18,18.37
109.23,-0.112,0.228,3.645,4.403,58,12.18,18.46
109.29,-0.055,0.166,3.644,4.403,58,12.18,18.54
109.35,-0.097,0.186,3.643,4.4,58,12.2,18.63
109.42,-0.1,0.186,3.642,4.4,58,12.18,18.78
109.48,0.195,0.394,3.642,4.399,58,12.2,19.0
109.55,-0.035,0.166,3.64,4.398,58,12.18,19.23
109.61,0.045,0.269,3.639,4.398,58,12.18,19.46
109.68,0.197,0.186,3.638,4.395,58,12.18,19.71
109.74,0.239,0.269,3.637,4.394,58,12.18,19.98
109.81,-0.034,0.249,3.637,4.393,58,12.2,20.23
109.87,-0.057,0.228,3.634,4.39,60,12.18,20.49
109.94,-0.05,0.249,3.634,4.39,60,12.18,20.64
110.0,-0.053,0.166,3.633,4.39,60,12.18,20.8
110.06,-0.052,0.228,3.632,4.388,60,12.18,21.08
110.13,-0.052,0.145,3.632,4.388,60,12.18,21.39
110.19,-0.041,0.249,3.629,4.385,60,12.18,21.74
110.26,0.009,0.331,3.629,4.384,60,12.2,22.05
110.32,0.265,0.394,3.628,4.383,60,12.2,22.31
110.39,0.328,0.394,3.627,4.383,60,12.18,22.59
110.45,-0.014,0.352,3.627,4.381,60,12.2,22.82
110.52,0.04,0.249,3.626,4.38,68,12.18,23.03
110.58,0.138,0.186,3.625,4.379,68,12.18,23.21
110.65,0.299,0.207,3.622,4.375,68,12.18,23.49
110.71,0.153,0.186,3.622,4.375,68,12.18,23.51
110.77,-0.033,0.186,3.622,4.375,68,12.18,23.59
110.84,-0.031,0.207,3.622,4.374,68,12.18,23.6
110.9,-0.04,0.207,3.62,4.373,68,12.2,23.52
110.97,-0.048,0.207,3.62,4.371,68,12.2,23.52
111.03,-0.053,0.124,3.62,4.37,68,12.18,23.54
111.1,-0.053,0.207,3.617,4.368,68,12.2,23.57
111.16,0.003,0.207,3.617,4.368,68,12.18,23.57
111.23,-0.051,0.186,3.615,4.366,68,12.18,23.55
111.29,-0.019,0.207,3.615,4.365,68,12.2,23.55
111.35,0.228,0.373,3.615,4.364,68,12.18,23.56
111.42,-0.001,0.145,3.612,4.363,68,12.18,23.52
111.48,0.076,0.186,3.612,4.363,68,12.2,23.46
111.55,0.229,0.207,3.611,4.36,68,12.18,23.4
111.61,0.207,0.228,3.61,4.36,68,12.2,23.31
111.68,-0.061,0.186,3.61,4.359,60,12.2,23.15
111.74,-0.077,0.166,3.61,4.358,60,12.18,22.96
111.81,-0.083,0.207,3.607,4.355,60,12.2,22.65
111.87,-0.099,0.166,3.607,4.355,60,12.18,22.37
111.94,-0.11,0.186,3.605,4.354,60,12.18,22.13
112.0,-0.117,0.207,3.605,4.353,60,12.18,21.86
112.06,-0.088,0.166,3.603,4.351,60,12.2,21.59
112.13,-0.103,0.166,3.602,4.35,60,12.18,21.29
112.19,-0.157,0.145,3.602,4.35,60,12.18,20.97
112.26,0.188,0.394,3.6,4.348,60,12.18,20.67
112.32,-0.139,0.207,3.6,4.348,60,12.18,20.41
112.39,-0.056,0.228,3.597,4.345,60,12.18,20.18
112.45,0.065,0.228,3.597,4.345,64,12.2,19.97
112.52,0.185,0.186,3.597,4.343,64,12.18,19.78
112.58,-0.087,0.186,3.595,4.343,64,12.18,19.56
112.65,-0.161,0.124,3.595,4.34,64,12.18,19.37
112.71,-0.152,0.249,3.593,4.339,64,12.18,19.11
112.77,-0.159,0.186,3.592,4.338,64,12.2,18.8
112.84,-0.161,0.145,3.592,4.336,64,12.2,18.61
112.9,-0.159,0.186,3.592,4.335,64,12.2,18.53
112.97,-0.154,0.166,3.59,4.334,64,12.2,18.47
113.03,-0.108,0.249,3.59,4.333,64,12.2,18.42
113.1,-0.113,0.145,3.59,4.333,64,12.18,18.37
113.16,-0.157,0.186,3.587,4.331,64,12.2,18.34
113.23,0.162,0.394,3.587,4.331,64,12.2,18.33
113.29,-0.1,0.207,3.586,4.329,64,12.18,18.33
113.35,-0.025,0.228,3.585,4.328,64,12.2,18.33
113.42,0.107,0.145,3.585,4.328,62,12.2,18.33
113.48,0.225,0.207,3.583,4.326,62,12.18,18.35
113.55,-0.049,0.145,3.582,4.324,62,12.2,18.35
113.61,-0.116,0.145,3.582,4.323,62,12.18,18.36
113.68,-0.107,0.104,3.581,4.322,62,12.2,18.32
113.74,-0.113,0.145,3.58,4.321,62,12.18,18.27
113.81,-0.114,0.145,3.58,4.321,62,12.18,18.25
113.87,-0.111,0.207,3.578,4.318,62,12.18,18.25
113.94,-0.11,0.145,3.577,4.317,62,12.18,18.26
114.0,-0.051,0.186,3.577,4.316,62,12.18,18.28
114.06,-0.092,0.207,3.575,4.316,62,12.18,18.28
114.13,-0.115,0.249,3.575,4.313,62,12.18,18.28
114.19,0.194,0.394,3.573,4.313,62,12.2,18.3
114.26,-0.05,0.228,3.572,4.311,62,12.18,18.36
114.32,0.024,0.166,3.572,4.311,62,12.18,18.47
114.39,0.171,0.186,3.57,4.308,62,12.18,18.59
114.45,0.237,0.186,3.57,4.308,62,12.18,18.74
114.52,-0.043,0.29,3.568,4.307,62,12.2,18.93
114.58,-0.065,0.207,3.567,4.306,63,12.18,19.13
114.65,-0.049,0.166,3.567,4.306,63,12.18,19.24
114.71,-0.048,0.124,3.567,4.303,63,12.18,19.32
114.77,-0.039,0.186,3.565,4.302,63,12.18,19.49
114.84,-0.02,0.207,3.565,4.301,63,12.18,19.7
114.9,0.044,0.228,3.562,4.299,63,12.18,19.96
114.97,-0.022,0.207,3.562,4.298,63,12.2,20.19
115.03,0.276,0.29,3.561,4.297,63,12.18,20.41
115.1,0.031,0.311,3.56,4.296,63,12.18,20.66
115.16,0.083,0.186,3.56,4.296,63,12.18,20.92
115.23,0.188,0.186,3.557,4.294,63,12.18,21.19
115.29,0.21086055276381913,0.207,3.557,4.293,63,12.18,21.47
115.35,0.219,0.186,3.556,4.292,63,12.18,21.76
115.42,0.035,0.207,3.555,4.291,63,12.18,22.03
115.48,0.039,0.207,3.555,4.289,63,12.2,22.25
115.55,0.032,0.166,3.555,4.288,63,12.2,22.36
115.61,0.031,0.145,3.552,4.287,63,12.18,22.51
115.68,0.038,0.145,3.552,4.286,63,12.2,22.73
115.74,0.1,0.145,3.552,4.286,63,12.18,22.98
115.81,0.027,0.228,3.551,4.283,63,12.18,23.18
115.87,0.17,0.269,3.55,4.283,63,12.18,23.33
115.94,0.221,0.373,3.55,4.282,68,12.18,23.45
116.0,0.093,0.145,3.547,4.281,68,12.18,23.54
116.06,0.183,0.249,3.547,4.281,68,12.18,23.6
116.13,0.23312442396313363,0.269,3.547,4.278,68,12.18,23.65
116.19,0.256,0.249,3.545,4.278,68,12.2,23.66
116.26,0.032,0.166,3.545,4.276,68,12.18,23.62
116.32,0.028,0.186,3.543,4.276,68,12.18,23.53
116.39,0.021,0.186,3.542,4.274,68,12.2,23.4
116.45,0.01,0.228,3.542,4.273,68,12.18,23.39
116.52,0.003,0.186,3.541,4.272,54,12.18,23.43
116.58,0.024,0.228,3.54,4.271,54,12.18,23.44
116.65,0.044,0.186,3.54,4.269,54,12.2,23.41
116.71,-0.026,0.207,3.54,4.268,54,12.18,23.31
116.77,-0.04832867132867133,0.435,3.538,4.268,54,12.18,23.26
116.84,-0.057,0.207,3.538,4.266,54,12.18,23.19
116.9,0.063,0.207,3.536,4.266,54,12.2,23.07
116.97,0.169,0.145,3.535,4.263,54,12.2,22.92
117.03,0.307,0.186,3.535,4.263,54,12.18,22.74
117.1,0.069,0.186,3.533,4.262,54,12.2,22.48
117.16,-0.053,0.207,3.533,4.261,54,12.2,22.19
117.23,-0.054,0.249,3.531,4.259,54,12.18,21.79
117.29,-0.072,0.186,3.53,4.258,54,12.18,21.35
117.35,-0.085,0.145,3.53,4.258,54,12.18,21.07
117.42,-0.095,0.207,3.529,4.256,54,12.18,20.85
117.48,-0.103,0.228,3.528,4.256,54,12.2,20.65
117.55,-0.088,0.207,3.528,4.253,54,12.18,20.49
117.61,-0.068,0.186,3.528,4.253,54,12.18,20.27
117.68,-0.146,0.228,3.525,4.251,54,12.2,20.06
117.74,0.239,0.352,3.525,4.251,54,12.2,19.88
117.81,-0.142,0.373,3.525,4.248,54,12.18,19.71
117.87,-0.053,0.207,3.523,4.248,54,12.18,19.58
117.94,0.029,0.207,3.523,4.247,62,12.18,19.44
118.0,0.175,0.124,3.523,4.246,62,12.18,19.33
118.06,-0.025,0.145,3.521,4.245,62,12.18,19.2
118.13,-0.169,0.228,3.518,4.242,62,12.2,18.91
118.19,-0.161,0.207,3.519,4.242,62,12.18,18.88
118.26,-0.168,0.145,3.518,4.244,62,12.18,18.66
118.32,-0.174,0.166,3.518,4.241,62,12.2,18.54
118.39,-0.174,0.124,3.518,4.24,62,12.2,18.48
118.45,-0.17,0.207,3.516,4.239,62,12.18,18.44
118.52,-0.167,0.186,3.515,4.237,62,12.18,18.4
118.58,-0.117,0.331,3.514,4.236,62,12.18,18.36
118.65,-0.138,0.269,3.513,4.235,62,12.18,18.33
118.71,-0.171,0.228,3.513,4.234,62,12.18,18.33
118.77,0.148,0.518,3.513,4.234,62,12.18,18.33
118.84,-0.115,0.166,3.51,4.232,62,12.18,18.33
118.9,-0.041,0.186,3.51,4.231,62,12.2,18.33
118.97,0.089,0.207,3.509,4.23,59,12.18,18.33
119.03,0.203,0.207,3.508,4.229,59,12.2,18.35
119.1,-0.065,0.29,3.508,4.227,59,12.2,18.35
119.16,-0.13,0.145,3.508,4.226,59,12.18,18.36
119.23,-0.132,0.228,3.505,4.226,59,12.18,18.32
119.29,-0.133,0.249,3.505,4.224,59,12.2,18.26
119.35,-0.133,0.228,3.505,4.224,59,12.18,18.25
119.42,-0.132,0.186,3.503,4.221,59,12.2,18.25
119.48,-0.128,0.228,3.503,4.221,59,12.2,18.25
119.55,-0.105,0.207,3.503,4.219,59,12.18,18.26
119.61,-0.07,0.166,3.501,4.22,59,12.2,18.26
119.68,-0.13,0.145,3.5,4.219,59,12.18,18.28
119.74,0.248,0.29,3.5,4.216,59,12.18,18.28
119.81,-0.163,0.414,3.5,4.216,59,12.18,18.3
119.87,-0.026,0.249,3.498,4.216,59,12.18,18.32
119.94,0.08,0.166,3.498,4.214,59,12.18,18.37
120.0,0.249,0.228,3.495,4.214,59,12.18,18.47
120.06,0.075,0.207,3.495,4.212,59,12.18,18.57
120.13,-0.084,0.186,3.495,4.211,60,12.2,18.68
120.19,-0.072,0.186,3.495,4.21,60,12.2,18.79
120.26,-0.068,0.186,3.495,4.209,60,12.18,18.83
120.32,-0.061,0.145,3.494,4.209,60,12.18,18.95
120.39,-0.053,0.207,3.493,4.206,60,12.18,19.16
120.45,-0.045,0.249,3.493,4.206,60,12.18,19.41
120.52,0.0,0.145,3.49,4.204,60,12.18,19.68
120.58,0.004,0.186,3.49,4.204,60,12.18,19.92
120.65,-0.033,0.186,3.49,4.204,60,12.18,20.2
120.71,0.32,0.331,3.488,4.201,60,12.18,20.48
120.77,0.013,0.29,3.488,4.201,60,12.18,20.8
120.84,0.11,0.166,3.488,4.2,60,12.2,21.11
120.9,0.24,0.186,3.485,4.199,60,12.2,21.43
120.97,0.18763801261829655,0.228,3.485,4.199,60,12.2,21.76
121.03,0.1,0.249,3.485,4.196,60,12.2,22.09
121.1,0.029,0.186,3.483,4.196,60,12.18,22.39
121.16,0.03,0.145,3.483,4.194,60,12.18,22.57
121.23,0.023,0.228,3.483,4.194,60,12.2,22.7
121.29,0.02,0.186,3.481,4.192,60,12.2,22.89
121.35,0.02,0.207,3.48,4.191,60,12.18,23.1
121.42,0.029,0.186,3.48,4.191,60,12.18,23.29
121.48,0.076,0.166,3.478,4.189,60,12.18,23.4
121.55,0.0,0.145,3.478,4.187,60,12.2,23.48
121.61,0.317,0.249,3.475,4.186,63,12.18,23.56
121.68,0.036,0.311,3.475,4.186,63,12.2,23.6
121.74,0.082,0.166,3.475,4.186,63,12.18,23.6
121.81,0.177,0.124,3.475,4.184,63,12.2,23.57
121.87,0.18907142857142858,0.145,3.474,4.184,63,12.18,23.56
121.94,0.193,0.124,3.473,4.182,63,12.2,23.51
122.0,0.0,0.228,3.473,4.181,63,12.18,23.45
122.06,-0.004,0.186,3.471,4.181,63,12.18,23.31
122.13,-0.018,0.186,3.47,4.179,63,12.2,23.04
122.19,-0.029,0.207,3.47,4.179,63,12.18,22.91
122.26,-0.039,0.186,3.469,4.177,63,12.18,22.82
122.32,-0.024,0.207,3.468,4.176,63,12.18,22.69
122.39,0.0,0.269,3.468,4.176,63,12.18,22.52
122.45,-0.077,0.269,3.465,4.174,63,12.18,22.29
122.52,0.317,0.29,3.465,4.174,63,12.2,22.04
122.58,-0.12,0.311,3.465,4.172,63,12.2,21.78
122.65,0.006,0.166,3.464,4.171,63,12.18,21.56
122.71,0.113,0.228,3.463,4.171,63,12.18,21.37
122.77,0.264,0.228,3.463,4.169,63,12.2,21.21
122.84,0.044,0.166,3.46,4.169,63,12.2,21.01
122.9,-0.089,0.207,3.46,4.167,63,12.18,20.82
122.97,-0.087,0.166,3.46,4.166,63,12.18,20.59
123.03,-0.098,0.207,3.458,4.166,63,12.18,20.3
123.1,-0.106,0.166,3.458,4.164,63,12.18,20.05
123.16,-0.111,0.166,3.458,4.164,63,12.18,19.85
123.23,-0.112,0.166,3.456,4.162,63,12.18,19.69
123.29,-0.111,0.166,3.455,4.161,63,12.18,19.56
123.35,-0.053,0.228,3.455,4.161,63,12.18,19.4
123.42,-0.115,0.29,3.454,4.16,63,12.2,19.25
123.48,-0.079,0.186,3.453,4.159,63,12.18,19.14
123.55,0.153,0.435,3.453,4.157,63,12.2,19.04
123.61,-0.062,0.166,3.453,4.156,63,12.2,18.94
123.68,0.014,0.166,3.451,4.156,63,12.2,18.86
123.74,0.164,0.124,3.45,4.155,60,12.2,18.79
123.81,0.175,0.166,3.45,4.154,60,12.18,18.73
123.87,-0.096,0.228,3.45,4.154,60,12.18,18.66
123.94,-0.113,0.207,3.448,4.152,60,12.2,18.61
124.0,-0.113,0.166,3.448,4.152,60,12.18,18.5
124.06,-0.124,0.186,3.448,4.15,60,12.2,18.43
124.13,-0.124,0.228,3.446,4.149,60,12.18,18.38
124.19,-0.123,0.207,3.446,4.148,60,12.18,18.36
124.26,-0.121,0.145,3.446,4.147,60,12.18,18.35
124.32,-0.117,0.145,3.444,4.147,60,12.18,18.33
124.39,-0.056,0.352,3.443,4.147,60,12.18,18.32
124.45,-0.117,0.269,3.443,4.144,60,12.18,18.31
124.52,-0.065,0.29,3.443,4.144,60,12.2,18.31
124.58,0.127,0.249,3.441,4.143,60,12.18,18.33
124.65,-0.058,0.186,3.441,4.142,60,12.18,18.33
124.71,0.021,0.145,3.441,4.142,60,12.18,18.34
124.77,0.172,0.207,3.438,4.139,58,12.2,18.35
124.84,0.18,0.186,3.438,4.139,58,12.18,18.37
124.9,-0.09,0.166,3.438,4.138,58,12.2,18.37
124.97,-0.106,0.186,3.437,4.137,58,12.2,18.37
125.03,-0.102,0.166,3.436,4.137,58,12.2,18.32
125.1,-0.111,0.186,3.436,4.134,58,12.18,18.27
125.16,-0.107,0.166,3.436,4.134,58,12.18,18.29
125.23,-0.105,0.207,3.434,4.133,58,12.2,18.36
125.29,-0.101,0.145,3.433,4.132,58,12.18,18.48
125.35,-0.095,0.145,3.433,4.132,58,12.18,18.58
125.42,-0.034,0.186,3.432,4.129,58,12.18,18.73
125.48,-0.09,0.207,3.431,4.129,58,12.18,18.94
125.55,0.0,0.29,3.431,4.129,58,12.18,19.18
125.61,0.135,0.373,3.428,4.128,58,12.18,19.4
125.68,-0.019,0.269,3.428,4.127,58,12.18,19.64
125.74,0.064,0.228,3.428,4.127,58,12.18,19.89
125.81,0.218,0.207,3.426,4.124,58,12.18,20.14
125.87,0.21,0.207,3.426,4.124,58,12.2,20.4
125.94,-0.045,0.145,3.426,4.123,58,12.18,20.65
126.0,-0.056,0.145,3.424,4.122,58,12.2,20.89
126.06,-0.053,0.207,3.423,4.122,58,12.2,21.02
126.13,-0.06,0.186,3.423,4.12,58,12.18,21.18
126.19,-0.062,0.249,3.423,4.119,58,12.18,21.44
126.26,-0.059,0.207,3.421,4.118,58,12.2,21.74
126.32,-0.02,0.166,3.421,4.117,58,12.2,22.07
126.39,-0.025,0.186,3.421,4.117,58,12.18,22.33
126.45,-0.065,0.166,3.418,4.114,58,12.2,22.58
126.52,0.291,0.352,3.418,4.114,58,12.2,22.84
126.58,-0.005,0.186,3.418,4.114,58,12.18,23.07
126.65,0.077,0.186,3.418,4.113,58,12.18,23.29
126.71,0.213,0.249,3.417,4.112,58,12.18,23.46
126.77,0.32,0.166,3.416,4.109,58,12.18,23.61
126.84,0.037,0.124,3.416,4.109,58,12.18,23.75
126.9,-0.033,0.186,3.414,4.109,64,12.2,23.83
126.97,-0.035,0.207,3.413,4.107,64,12.2,23.78
127.03,-0.043,0.207,3.413,4.107,64,12.18,23.68
127.1,-0.047,0.207,3.412,4.107,64,12.2,23.66
127.16,-0.039,0.145,3.411,4.104,64,12.18,23.64
127.23,0.006,0.145,3.411,4.102,64,12.18,23.58
127.29,-0.072,0.166,3.411,4.103,64,12.2,23.57
127.35,0.29,0.331,3.408,4.102,64,12.2,23.51
127.42,-0.076,0.373,3.408,4.102,64,12.18,23.46
127.48,0.005,0.145,3.408,4.099,64,12.2,23.4
127.55,0.098,0.186,3.407,4.099,64,12.18,23.31
127.61,0.258,0.207,3.406,4.099,64,12.18,23.21
127.68,0.086,0.186,3.406,4.097,64,12.18,23.05
127.74,-0.101,0.145,3.406,4.097,69,12.18,22.85
127.81,-0.106,0.186,3.403,4.095,69,12.2,22.56
127.87,-0.118,0.207,3.403,4.094,69,12.18,22.14
127.94,-0.129,0.166,3.403,4.094,69,12.18,21.79
128.0,-0.137,0.186,3.401,4.092,69,12.18,21.51
128.06,-0.141,0.145,3.401,4.092,69,12.18,21.23
128.13,-0.081,0.186,3.401,4.092,69,12.2,20.97
128.19,-0.14,0.269,3.399,4.089,69,12.18,20.69
128.26,-0.157,0.269,3.398,4.089,69,12.2,20.41
128.32,0.15,0.477,3.398,4.088,69,12.18,20.16
128.39,-0.111,0.207,3.398,4.087,69,12.18,19.95
128.45,-0.039,0.29,3.397,4.087,69,12.2,19.77
128.52,0.101,0.166,3.396,4.087,64,12.2,19.6
128.58,0.144,0.207,3.396,4.085,64,12.18,19.45
128.65,-0.133,0.249,3.394,4.084,64,12.18,19.31
128.71,-0.158,0.145,3.393,4.083,64,12.2,19.18
128.77,-0.153,0.207,3.393,4.082,64,12.18,18.96
128.84,-0.159,0.145,3.393,4.082,64,12.18,18.73
128.9,-0.16,0.207,3.392,4.08,64,12.18,18.61
128.97,-0.157,0.166,3.391,4.079,64,12.18,18.56
129.03,-0.155,0.145,3.391,4.079,64,12.18,18.52
129.1,-0.12,0.166,3.389,4.079,64,12.18,18.48
129.16,-0.115,0.207,3.388,4.077,64,12.2,18.44
129.23,-0.165,0.207,3.388,4.077,64,12.2,18.4
129.29,0.178,0.373,3.388,4.074,64,12.18,18.39
129.35,-0.142,0.269,3.387,4.074,64,12.18,18.39
129.42,-0.045,0.145,3.386,4.074,64,12.2,18.39
129.48,0.074,0.186,3.386,4.073,60,12.18,18.39
129.55,0.214,0.166,3.384,4.072,60,12.2,18.4
129.61,-0.023,0.166,3.383,4.072,60,12.2,18.4
129.68,-0.126,0.207,3.383,4.07,60,12.18,18.4
129.74,-0.121,0.145,3.383,4.069,60,12.18,18.36
129.81,-0.126,0.269,3.382,4.069,60,12.18,18.3
129.87,-0.128,0.186,3.381,4.068,60,12.18,18.28
129.94,-0.127,0.166,3.381,4.067,60,12.2,18.28
130.0,-0.126,0.207,3.379,4.065,60,12.18,18.28
130.06,-0.115,0.124,3.378,4.065,60,12.18,18.29
130.13,-0.064,0.249,3.378,4.065,60,12.2,18.28
130.19,-0.13,0.249,3.378,4.065,60,12.18,18.3
130.26,0.142,0.331,3.376,4.063,60,12.2,18.3
130.32,-0.073,0.394,3.376,4.062,60,12.18,18.32
130.39,-0.041,0.186,3.376,4.061,60,12.18,18.35
130.45,0.053,0.207,3.374,4.06,60,12.2,18.42
130.52,0.216,0.186,3.373,4.06,60,12.18,18.53
130.58,0.135,0.145,3.373,4.057,60,12.18,18.64
130.65,-0.083,0.207,3.373,4.057,60,12.18,18.78
130.71,-0.078,0.228,3.371,4.057,60,12.18,18.93
130.77,-0.076,0.207,3.371,4.056,60,12.18,18.99
130.84,-0.077,0.186,3.371,4.055,60,12.18,19.1
130.9,-0.069,0.166,3.368,4.055,60,12.18,19.29
130.97,-0.065,0.207,3.368,4.052,60,12.18,19.52
131.03,0.004,0.249,3.368,4.052,60,12.18,19.76
131.1,-0.045,0.207,3.367,4.052,60,12.18,19.96
131.16,-0.043,0.207,3.366,4.051,60,12.2,20.18
131.23,0.243,0.352,3.366,4.05,60,12.18,20.43
131.29,0.013,0.228,3.364,4.05,60,12.18,20.69
131.35,0.091,0.166,3.363,4.047,60,12.18,20.96
131.42,0.242,0.228,3.363,4.047,60,12.18,21.23
131.48,0.274,0.186,3.363,4.047,60,12.2,21.5
131.55,0.009,0.207,3.361,4.045,60,12.18,21.76
131.61,-0.012,0.186,3.361,4.045,60,12.2,21.98
131.68,-0.015,0.207,3.361,4.045,60,12.2,22.05
131.74,-0.027,0.228,3.361,4.043,65,12.2,22.13
131.81,-0.028,0.207,3.359,4.042,65,12.2,22.26
131.87,0.034,0.166,3.359,4.042,65,12.18,22.37
131.94,-0.028,0.228,3.359,4.042,65,12.2,22.48
132.0,-0.013,0.186,3.357,4.041,65,12.2,22.54
132.06,0.254,0.331,3.356,4.04,65,12.18,22.56
132.13,0.018,0.207,3.356,4.04,65,12.18,22.57
132.19,0.094,0.207,3.356,4.038,65,12.18,22.57
132.26,0.247,0.166,3.354,4.037,65,12.2,22.57
132.32,0.247,0.207,3.354,4.037,65,12.18,22.55
132.39,-0.016,0.249,3.354,4.036,65,12.2,22.48
132.45,-0.036,0.166,3.352,4.035,71,12.18,22.39
132.52,-0.042,0.166,3.351,4.033,71,12.18,22.15
132.58,-0.053,0.207,3.351,4.032,71,12.18,22.0
132.65,-0.049,0.207,3.351,4.032,71,12.18,21.96
132.71,0.002,0.228,3.349,4.031,71,12.18,21.91
132.77,-0.082,0.145,3.349,4.03,71,12.2,21.85
132.84,0.207,0.331,3.349,4.03,71,12.18,21.74
132.9,-0.036,0.477,3.346,4.027,71,12.2,21.63
132.97,-0.014,0.228,3.346,4.027,71,12.18,21.53
133.03,0.079,0.228,3.346,4.027,71,12.18,21.4
133.1,0.235,0.207,3.345,4.025,71,12.18,21.25
133.16,0.105,0.207,3.344,4.025,71,12.18,21.1
133.23,-0.095,0.311,3.344,4.025,73,12.18,20.93
133.29,-0.097,0.145,3.342,4.023,73,12.18,20.7
133.35,-0.111,0.186,3.342,4.022,73,12.18,20.36
133.42,-0.124,0.186,3.341,4.022,73,12.18,20.07
133.48,-0.13,0.186,3.341,4.021,73,12.2,19.87
133.55,-0.085,0.186,3.341,4.02,73,12.18,19.68
133.61,-0.12,0.186,3.34,4.02,73,12.2,19.53
133.68,-0.171,0.186,3.339,4.02,73,12.18,19.36
133.74,0.152,0.394,3.339,4.018,73,12.18,19.2
133.81,-0.12,0.29,3.339,4.017,73,12.18,19.04
133.87,-0.052,0.145,3.336,4.017,73,12.18,18.91
133.94,0.078,0.145,3.336,4.016,68,12.18,18.78
134.0,0.171,0.228,3.336,4.015,68,12.18,18.69
134.06,-0.105,0.186,3.335,4.015,68,12.18,18.62
134.13,-0.161,0.186,3.334,4.012,68,12.18,18.56
134.19,-0.156,0.228,3.334,4.012,68,12.18,18.46
134.26,-0.166,0.228,3.334,4.012,68,12.18,18.37
134.32,-0.167,0.207,3.332,4.012,68,12.2,18.31
134.39,-0.164,0.228,3.331,4.01,68,12.18,18.28
134.45,-0.12,0.145,3.331,4.01,68,12.18,18.26
134.52,-0.122,0.207,3.331,4.008,68,12.2,18.24
134.58,-0.171,0.228,3.33,4.007,68,12.18,18.23
134.65,0.177,0.352,3.329,4.007,68,12.2,18.23
134.71,-0.147,0.186,3.329,4.007,68,12.2,18.23
134.77,-0.046,0.269,3.329,4.005,68,12.2,18.24
134.84,0.077,0.145,3.327,4.005,65,12.2,18.25
134.9,0.22,0.166,3.326,4.005,65,12.18,18.28
134.97,-0.025,0.166,3.326,4.003,65,12.18,18.28
135.03,-0.119,0.207,3.326,4.002,65,12.18,18.3
135.1,-0.108,0.207,3.326,4.002,65,12.2,18.26
135.16,-0.113,0.249,3.324,4.002,65,12.18,18.21
135.23,-0.113,0.166,3.324,4.0,65,12.18,18.18
135.29,-0.111,0.249,3.324,4.0,65,12.18,18.18
135.35,-0.088,0.166,3.324,4.0,65,12.2,18.18
135.42,-0.04,0.186,3.321,3.997,65,12.2,18.2
135.48,-0.112,0.186,3.321,3.997,65,12.18,18.19
135.55,0.234,0.352,3.321,3.997,65,12.18,18.2
135.61,-0.102,0.269,3.32,3.995,65,12.2,18.21
135.68,-0.007,0.166,3.319,3.995,65,12.2,18.23
135.74,0.096,0.186,3.319,3.995,65,12.18,18.28
135.81,0.271,0.166,3.319,3.995,65,12.2,18.4
135.87,0.136,0.207,3.317,3.993,65,12.2,18.53
135.94,-0.056,0.228,3.316,3.992,65,12.18,18.66
136.0,-0.047,0.166,3.316,3.992,65,12.18,18.82
136.06,-0.045,0.269,3.315,3.992,65,12.2,18.89
136.13,-0.046,0.207,3.314,3.991,65,12.18,19.02
136.19,-0.042,0.145,3.314,3.99,65,12.18,19.22
136.26,-0.033,0.207,3.314,3.988,65,12.18,19.42
136.32,0.031,0.228,3.312,3.987,65,12.18,19.64
136.39,-0.014,0.186,3.311,3.987,65,12.18,19.82
136.45,-0.041,0.228,3.311,3.987,65,12.2,20.0
136.52,0.3,0.414,3.311,3.986,65,12.2,20.19
136.58,0.031,0.207,3.309,3.985,65,12.18,20.41
136.65,0.107,0.311,3.309,3.985,65,12.18,20.61
136.71,0.245,0.124,3.309,3.983,65,12.18,20.83
136.77,0.16684220830070476,0.166,3.309,3.982,65,12.2,21.06
136.84,0.06,0.269,3.306,3.982,65,12.18,21.28
136.9,0.016,0.145,3.306,3.981,65,12.18,21.5
136.97,0.02,0.166,3.306,3.98,65,12.18,21.59
137.03,0.014,0.269,3.304,3.98,65,12.18,21.63
137.1,0.015,0.166,3.304,3.98,65,12.2,21.78
137.16,0.019,0.207,3.304,3.978,65,12.18,21.95
137.23,0.026,0.186,3.304,3.978,65,12.2,22.13
137.29,0.087,0.207,3.301,3.978,65,12.2,22.25
137.35,0.027,0.145,3.301,3.976,65,12.18,22.36
137.42,0.055,0.228,3.301,3.975,65,12.2,22.52
137.48,0.33,0.331,3.301,3.975,64,12.2,22.65
137.55,0.087,0.186,3.3,3.973,64,12.2,22.79
137.61,0.166,0.207,3.299,3.973,64,12.18,22.9
137.68,0.315,0.145,3.299,3.973,64,12.18,23.01
137.74,0.1932648514851485,0.207,3.299,3.971,64,12.2,23.12
137.81,0.052,0.186,3.296,3.97,64,12.18,23.2
137.87,0.027,0.228,3.296,3.97,64,12.2,23.28
137.94,0.021,0.166,3.296,3.969,64,12.2,23.19
138.0,0.009,0.249,3.296,3.968,64,12.2,23.14
138.06,0.003,0.145,3.294,3.968,49,12.18,23.18
138.13,0.0,0.249,3.294,3.966,49,12.18,23.2
138.19,0.001,0.207,3.294,3.965,49,12.18,23.17
138.26,0.053,0.228,3.294,3.965,49,12.18,23.08
138.32,-0.006,0.249,3.291,3.965,49,12.18,23.01
138.39,0.001,0.186,3.291,3.964,49,12.18,22.97
138.45,0.309,0.477,3.291,3.963,49,12.2,22.89
138.52,0.045,0.207,3.291,3.963,49,12.2,22.75
138.58,0.116,0.186,3.289,3.963,49,12.18,22.6
138.65,0.267,0.145,3.289,3.961,49,12.18,22.48
138.71,0.298,0.207,3.289,3.96,49,12.18,22.35
138.77,0.005,0.166,3.286,3.96,49,12.18,22.23
138.84,-0.025,0.186,3.286,3.96,49,12.2,22.1
138.9,-0.032,0.186,3.286,3.959,49,12.18,21.79
138.97,-0.05,0.145,3.286,3.958,49,12.2,21.46
139.03,-0.059,0.145,3.286,3.958,49,12.18,21.23
139.1,-0.066,0.207,3.284,3.956,49,12.18,21.0
139.16,-0.072,0.207,3.284,3.955,49,12.18,20.83
139.23,-0.076,0.186,3.284,3.955,49,12.18,20.62
139.29,-0.041,0.166,3.281,3.955,49,12.2,20.4
139.35,-0.057,0.207,3.281,3.954,49,12.2,20.21
139.42,-0.102,0.207,3.281,3.953,49,12.18,20.03
139.48,0.261,0.352,3.281,3.953,49,12.2,19.91
139.55,-0.091,0.228,3.281,3.953,49,12.18,19.76
139.61,-0.003,0.228,3.279,3.95,49,12.18,19.6
139.68,0.112,0.228,3.279,3.95,56,12.18,19.47
139.74,0.263,0.166,3.279,3.95,56,12.2,19.34
139.81,0.009,0.228,3.279,3.95,56,12.18,19.19
139.87,-0.112,0.249,3.276,3.948,56,12.2,19.05
139.94,-0.106,0.228,3.276,3.948,56,12.18,18.86
140.0,-0.118,0.166,3.276,3.948,56,12.2,18.63
140.06,-0.124,0.186,3.276,3.946,56,12.18,18.53
140.13,-0.128,0.166,3.274,3.945,56,12.2,18.47
140.19,-0.126,0.166,3.274,3.945,56,12.2,18.45
140.26,-0.124,0.186,3.274,3.945,56,12.2,18.41
140.32,-0.12,0.166,3.274,3.944,56,12.18,18.36
140.39,-0.105,0.104,3.273,3.943,56,12.2,18.32
140.45,-0.07,0.145,3.272,3.943,56,12.2,18.3
140.52,-0.13,0.145,3.272,3.943,56,12.2,18.3
140.58,0.207,0.29,3.272,3.94,56,12.18,18.3
140.65,-0.123,0.373,3.272,3.94,56,12.2,18.29
140.71,-0.045,0.228,3.269,3.94,56,12.2,18.29
140.77,0.049,0.186,3.269,3.94,53,12.18,18.29
140.84,0.221,0.186,3.269,3.938,53,12.2,18.3
140.9,0.115,0.186,3.268,3.938,53,12.2,18.28
140.97,-0.117,0.207,3.267,3.938,53,12.18,18.28
141.03,-0.118,0.186,3.267,3.936,53,12.18,18.26
141.1,-0.12,0.166,3.267,3.935,53,12.2,18.2
141.16,-0.129,0.186,3.267,3.935,53,12.18,18.18
141.23,-0.131,0.228,3.264,3.934,53,12.2,18.18
141.29,-0.128,0.249,3.264,3.933,53,12.18,18.18
141.35,-0.125,0.166,3.264,3.933,53,12.2,18.19
141.42,-0.119,0.186,3.264,3.933,53,12.18,18.19
141.48,-0.115,0.207,3.262,3.933,53,12.2,18.21
141.55,-0.057,0.186,3.262,3.93,53,12.18,18.28
141.61,-0.097,0.207,3.262,3.93,53,12.18,18.39
141.68,-0.1,0.145,3.262,3.93,53,12.2,18.5
141.74,0.211,0.373,3.26,3.93,53,12.2,18.62
141.81,-0.036,0.228,3.259,3.929,53,12.18,18.81
141.87,0.038,0.186,3.259,3.928,53,12.2,19.04
141.94,0.192,0.145,3.259,3.928,53,12.2,19.29
142.0,0.282,0.186,3.258,3.928,53,12.18,19.52
142.06,-0.015,0.186,3.257,3.925,53,12.2,19.77
142.13,-0.054,0.228,3.257,3.925,53,12.2,20.0
142.19,-0.047,0.166,3.257,3.925,53,12.2,20.14
142.26,-0.051,0.145,3.255,3.925,53,12.18,20.28
142.32,-0.048,0.166,3.254,3.923,53,12.18,20.53
142.39,-0.045,0.249,3.254,3.923,53,12.2,20.8
142.45,-0.04,0.228,3.254,3.921,53,12.2,21.11
142.52,-0.035,0.207,3.254,3.923,53,12.18,21.37
142.58,0.019,0.249,3.253,3.92,53,12.2,21.62
142.65,-0.024,0.228,3.252,3.92,53,12.18,21.91
142.71,0.03,0.228,3.252,3.919,53,12.18,22.19
142.77,0.249,0.373,3.252,3.918,53,12.18,22.46
142.84,0.043,0.207,3.252,3.918,53,12.18,22.7
142.9,0.123,0.166,3.249,3.918,53,12.2,22.93
142.97,0.277,0.207,3.249,3.916,53,12.18,23.12
143.03,0.29,0.207,3.249,3.915,53,12.2,23.29
143.1,0.005,0.166,3.247,3.915,53,12.18,23.42
143.16,-0.021,0.186,3.247,3.914,58,12.2,23.53
143.23,-0.032,0.166,3.247,3.913,58,12.2,23.5
143.29,-0.044,0.186,3.247,3.913,58,12.18,23.5
143.35,-0.051,0.207,3.245,3.911,58,12.2,23.57
143.42,-0.054,0.207,3.244,3.91,58,12.18,23.59
143.48,-0.051,0.145,3.244,3.91,58,12.18,23.56
143.55,-0.005,0.186,3.244,3.91,58,12.18,23.49
143.61,-0.073,0.145,3.243,3.91,58,12.2,23.43
143.68,0.212,0.29,3.242,3.908,58,12.2,23.37
143.74,-0.012,0.29,3.242,3.908,58,12.18,23.28
143.81,-0.006,0.145,3.242,3.908,58,12.2,23.13
143.87,0.081,0.145,3.24,3.908,62,12.2,22.97
143.94,0.249,0.228,3.239,3.905,62,12.18,22.81
144.0,0.149,0.186,3.239,3.905,62,12.18,22.63
144.06,-0.089,0.186,3.239,3.904,62,12.18,22.43
144.13,-0.096,0.166,3.239,3.905,62,12.18,22.18
144.19,-0.109,0.186,3.237,3.903,62,12.18,21.79
144.26,-0.125,0.228,3.237,3.903,62,12.18,21.42
144.32,-0.132,0.269,3.237,3.903,62,12.18,21.14
144.39,-0.138,0.249,3.237,3.901,62,12.18,20.88
144.45,-0.134,0.166,3.234,3.9,62,12.18,20.66
144.52,-0.085,0.249,3.234,3.9,62,12.18,20.4
144.58,-0.161,0.228,3.234,3.898,62,12.18,20.13
144.65,0.158,0.331,3.234,3.898,62,12.18,19.9
144.71,-0.137,0.29,3.233,3.898,62,12.18,19.71
144.77,-0.09,0.166,3.232,3.898,62,12.18,19.54
144.84,-0.002,0.145,3.232,3.895,62,12.18,19.36
144.9,0.164,0.145,3.232,3.895,62,12.2,19.21
144.97,0.065,0.145,3.232,3.895,62,12.18,19.06
145.03,-0.163,0.207,3.23,3.894,62,12.2,18.9
145.1,-0.167,0.29,3.229,3.895,62,12.18,18.74
145.16,-0.168,0.207,3.229,3.893,62,12.2,18.55
145.23,-0.171,0.186,3.229,3.893,62,12.18,18.45
145.29,-0.169,0.228,3.228,3.893,62,12.18,18.39
145.35,-0.167,0.124,3.228,3.891,62,12.18,18.35
145.42,-0.163,0.166,3.227,3.891,62,12.2,18.29
145.48,-0.157,0.207,3.227,3.891,62,12.18,18.28
145.55,-0.135,0.166,3.227,3.891,62,12.18,18.25
145.61,-0.097,0.166,3.225,3.888,62,12.18,18.24
145.68,-0.158,0.207,3.224,3.888,62,12.18,18.24
145.74,0.228,0.394,3.224,3.888,62,12.18,18.24
145.81,-0.191,0.435,3.224,3.887,62,12.2,18.23
145.87,-0.059,0.207,3.222,3.886,62,12.18,18.25
145.94,0.043,0.228,3.223,3.886,55,12.18,18.25
146.0,0.211,0.145,3.222,3.884,55,12.18,18.27
146.06,0.057,0.124,3.222,3.886,55,12.18,18.28
146.13,-0.126,0.186,3.222,3.883,55,12.2,18.28
146.19,-0.123,0.145,3.219,3.883,55,12.18,18.24
146.26,-0.129,0.145,3.219,3.882,55,12.18,18.19
146.32,-0.134,0.186,3.219,3.881,55,12.2,18.17
146.39,-0.135,0.228,3.219,3.881,55,12.18,18.17
146.45,-0.131,0.249,3.219,3.881,55,12.2,18.18
146.52,-0.127,0.228,3.218,3.879,55,12.18,18.19
146.58,-0.12,0.207,3.217,3.878,55,12.2,18.19
146.65,-0.061,0.228,3.217,3.878,55,12.18,18.21
146.71,-0.126,0.228,3.217,3.878,55,12.18,18.25
146.77,0.109,0.352,3.217,3.877,55,12.2,18.29
146.84,-0.044,0.394,3.214,3.877,55,12.2,18.32
146.9,-0.051,0.207,3.214,3.876,55,12.18,18.33
146.97,0.036,0.166,3.214,3.876,55,12.18,18.34
147.03,0.192,0.207,3.214,3.876,55,12.18,18.35
147.1,0.15,0.207,3.213,3.873,55,12.18,18.36
147.16,-0.094,0.186,3.212,3.873,57,12.18,18.35
147.23,-0.1,0.186,3.212,3.873,57,12.2,18.35
147.29,-0.1,0.166,3.212,3.871,57,12.18,18.29
147.35,-0.105,0.207,3.21,3.871,57,12.18,18.26
147.42,-0.103,0.145,3.209,3.871,57,12.18,18.32
147.48,-0.096,0.145,3.209,3.868,57,12.18,18.43
147.55,-0.091,0.124,3.209,3.868,57,12.18,18.57
147.61,-0.072,0.186,3.208,3.868,57,12.18,18.73
147.68,-0.024,0.166,3.207,3.868,57,12.18,18.93
147.74,-0.086,0.186,3.207,3.866,57,12.18,19.14
147.81,0.295,0.269,3.207,3.866,57,12.18,19.39
147.87,-0.111,0.29,3.205,3.866,57,12.18,19.64
147.94,0.017,0.145,3.204,3.866,57,12.18,19.9
148.0,0.117,0.269,3.204,3.866,57,12.18,20.16
148.06,0.282,0.207,3.204,3.863,57,12.18,20.42
148.13,0.143,0.186,3.203,3.863,57,12.2,20.69
148.19,-0.035,0.207,3.202,3.863,57,12.2,20.97
148.26,-0.032,0.166,3.202,3.862,59,12.18,21.15
148.32,-0.039,0.166,3.202,3.861,59,12.18,21.3
148.39,-0.04,0.228,3.202,3.861,59,12.18,21.5
148.45,-0.039,0.186,3.2,3.861,59,12.18,21.77
148.52,-0.037,0.228,3.199,3.859,59,12.18,22.08
148.58,0.028,0.186,3.199,3.858,59,12.18,22.35
148.65,-0.029,0.186,3.199,3.858,59,12.18,22.56
148.71,-0.02,0.249,3.199,3.858,59,12.18,22.77
148.77,0.245,0.331,3.197,3.858,59,12.18,22.96
148.84,0.013,0.228,3.197,3.856,59,12.18,23.11
148.9,0.093,0.207,3.197,3.856,59,12.18,23.24
148.97,0.244,0.124,3.197,3.856,59,12.2,23.34
149.03,0.27,0.186,3.195,3.854,59,12.18,23.4
149.1,0.0,0.166,3.194,3.854,59,12.18,23.43
149.16,-0.028,0.166,3.194,3.853,64,12.18,23.41
149.23,-0.037,0.207,3.194,3.853,64,12.18,23.27
149.29,-0.049,0.166,3.194,3.853,64,12.18,23.18
149.35,-0.058,0.186,3.193,3.851,64,12.18,23.18
149.42,-0.049,0.166,3.192,3.851,64,12.18,23.15
149.48,-0.003,0.311,3.192,3.851,64,12.18,23.1
149.55,-0.08,0.228,3.192,3.851,64,12.18,23.01
149.61,0.299,0.394,3.192,3.851,64,12.18,22.9
149.68,-0.105,0.352,3.189,3.849,64,12.18,22.81
149.74,-0.004,0.186,3.189,3.848,64,12.18,22.7
149.81,0.089,0.186,3.189,3.848,64,12.18,22.56
149.87,0.248,0.249,3.188,3.847,64,12.2,22.42
149.94,0.104,0.166,3.187,3.846,64,12.18,22.24
150.0,-0.084,0.228,3.187,3.846,68,12.18,22.05
150.06,-0.085,0.186,3.187,3.846,68,12.18,21.77
150.13,-0.098,0.228,3.187,3.846,68,12.18,21.43
150.19,-0.107,0.186,3.185,3.843,68,12.18,21.18
150.26,-0.11,0.166,3.185,3.843,68,12.18,21.01
150.32,-0.115,0.145,3.185,3.843,68,12.18,20.88
150.39,-0.054,0.29,3.185,3.843,68,12.18,20.73
150.45,-0.113,0.186,3.185,3.842,68,12.18,20.55
150.52,-0.116,0.29,3.183,3.841,68,12.18,20.38
150.58,0.181,0.58,3.182,3.841,68,12.18,20.22
150.65,-0.077,0.145,3.182,3.841,68,12.18,20.09
150.71,-0.005,0.269,3.182,3.838,68,12.18,19.98
150.77,0.132,0.166,3.181,3.838,64,12.18,19.87
150.84,0.182,0.207,3.18,3.838,64,12.18,19.75
150.9,-0.092,0.166,3.18,3.838,64,12.18,19.61
150.97,-0.125,0.249,3.18,3.837,64,12.18,19.48
151.03,-0.125,0.186,3.18,3.836,64,12.18,19.25
151.1,-0.132,0.29,3.18,3.836,64,12.18,19.02
151.16,-0.133,0.166,3.178,3.836,64,12.18,18.88
151.23,-0.131,0.186,3.177,3.836,64,12.18,18.76
151.29,-0.132,0.331,3.177,3.833,64,12.2,18.67
151.35,-0.126,0.145,3.177,3.833,64,12.18,18.6
151.42,-0.062,0.145,3.175,3.833,64,12.18,18.54
151.48,-0.137,0.207,3.175,3.832,64,12.18,18.49
151.55,0.019,0.249,3.175,3.831,64,12.18,18.46
151.61,0.024,0.352,3.175,3.831,64,12.18,18.44
151.68,-0.068,0.228,3.175,3.831,64,12.18,18.41
151.74,0.019,0.145,3.173,3.829,59,12.18,18.4
151.81,0.17,0.186,3.172,3.828,59,12.18,18.39
151.87,0.16,0.186,3.172,3.828,59,12.18,18.38
151.94,-0.091,0.145,3.172,3.828,59,12.18,18.37
152.0,-0.101,0.207,3.172,3.828,59,12.2,18.34
152.06,-0.103,0.249,3.172,3.826,59,12.18,18.27
152.13,-0.109,0.145,3.17,3.826,59,12.2,18.22
152.19,-0.109,0.269,3.17,3.826,59,12.2,18.21
152.26,-0.105,0.249,3.17,3.826,59,12.2,18.21
152.32,-0.1,0.145,3.17,3.823,59,12.18,18.22
152.39,-0.074,0.186,3.17,3.823,59,12.18,18.22
152.45,-0.051,0.207,3.168,3.823,59,12.18,18.23
152.52,-0.108,0.249,3.167,3.822,59,12.18,18.25
152.58,0.256,0.269,3.167,3.821,59,12.18,18.28
152.65,-0.118,0.311,3.167,3.821,59,12.18,18.32
152.71,-0.003,0.228,3.167,3.821,59,12.18,18.33
152.77,0.103,0.249,3.165,3.821,59,12.18,18.35
152.84,0.25,0.186,3.165,3.821,59,12.18,18.35
152.9,0.069,0.166,3.165,3.818,59,12.2,18.36
152.97,-0.073,0.228,3.165,3.818,59,12.18,18.36
153.03,-0.067,0.228,3.165,3.818,59,12.18,18.32
153.1,-0.075,0.228,3.162,3.816,59,12.18,18.25
153.16,-0.074,0.124,3.162,3.816,59,12.18,18.22
153.23,-0.074,0.124,3.162,3.816,59,12.18,18.2
153.29,-0.071,0.186,3.162,3.816,59,12.18,18.22
153.35,-0.034,0.249,3.161,3.813,59,12.18,18.23
153.42,-0.015,0.269,3.16,3.813,59,12.18,18.23
153.48,-0.073,0.186,3.16,3.813,59,12.18,18.33
153.55,0.274,0.394,3.16,3.813,59,12.18,18.34
153.61,-0.058,0.269,3.16,3.811,59,12.18,18.45
153.68,0.042,0.186,3.157,3.811,59,12.18,18.58
153.74,0.16,0.166,3.157,3.811,59,12.2,18.73
153.81,0.309,0.145,3.157,3.811,59,12.18,18.95
153.87,0.093,0.207,3.157,3.809,59,12.2,19.15
153.94,-0.015,0.249,3.157,3.808,62,12.18,19.36
154.0,-0.008,0.207,3.156,3.808,62,12.18,19.51
154.06,-0.013,0.186,3.155,3.808,62,12.18,19.59
154.13,-0.01,0.145,3.155,3.807,62,12.18,19.78
154.19,-0.005,0.166,3.155,3.806,62,12.18,20.01
154.26,0.064,0.228,3.153,3.806,62,12.18,20.3
154.32,-0.003,0.166,3.152,3.806,62,12.18,20.57
154.39,0.086,0.269,3.152,3.803,62,12.18,20.8
154.45,0.228,0.373,3.152,3.804,62,12.18,21.06
154.52,0.069,0.207,3.152,3.803,62,12.18,21.32
154.58,0.153,0.166,3.152,3.803,62,12.18,21.58
154.65,0.303,0.186,3.151,3.803,62,12.2,21.85
154.71,0.294,0.166,3.151,3.801,62,12.18,22.11
154.77,0.048,0.228,3.15,3.801,62,12.18,22.36
154.84,0.035,0.228,3.15,3.801,62,12.18,22.56
154.9,0.03,0.186,3.15,3.801,62,12.18,22.66
154.97,0.023,0.186,3.15,3.799,62,12.18,22.77
155.03,0.027,0.228,3.148,3.799,62,12.18,22.95
155.1,0.082,0.166,3.147,3.799,62,12.18,23.12
155.16,0.002,0.186,3.147,3.799,62,12.18,23.24
155.23,0.292,0.331,3.147,3.799,68,12.18,23.3
155.29,0.057,0.331,3.147,3.797,68,12.2,23.37
155.35,0.073,0.124,3.146,3.796,68,12.18,23.42
155.42,0.162,0.249,3.145,3.796,68,12.18,23.47
155.48,0.316,0.166,3.145,3.796,68,12.18,23.48
155.55,0.209,0.228,3.145,3.794,68,12.18,23.43
155.61,0.004,0.207,3.145,3.794,68,12.2,23.38
155.68,0.0,0.166,3.145,3.794,68,12.18,23.27
155.74,-0.013,0.207,3.142,3.794,68,12.2,23.09
155.81,-0.026,0.228,3.142,3.792,68,12.18,23.05
155.87,-0.026,0.166,3.142,3.791,68,12.18,23.01
155.94,0.027,0.228,3.142,3.791,68,12.18,22.92
156.0,-0.056,0.228,3.142,3.791,68,12.18,22.82
156.06,0.119,0.331,3.14,3.789,68,12.18,22.7
156.13,0.105,0.352,3.14,3.789,68,12.18,22.6
156.19,0.0,0.207,3.14,3.789,68,12.18,22.51
156.26,0.079,0.166,3.14,3.787,68,12.18,22.38
156.32,0.225,0.373,3.137,3.786,68,12.18,22.25
156.39,0.164,0.186,3.137,3.786,68,12.18,22.06
156.45,-0.069,0.166,3.137,3.786,68,12.18,21.81
156.52,-0.082,0.249,3.137,3.786,68,12.18,21.49
156.58,-0.095,0.166,3.137,3.786,68,12.18,21.08
156.65,-0.106,0.186,3.137,3.784,68,12.18,20.73
156.71,-0.114,0.145,3.135,3.784,68,12.18,20.5
156.77,-0.118,0.145,3.135,3.784,68,12.18,20.29
156.84,-0.107,0.207,3.135,3.784,68,12.18,20.13
156.9,-0.061,0.207,3.133,3.782,68,12.18,19.91
156.97,-0.139,0.228,3.132,3.781,68,12.18,19.68
157.03,0.207,0.373,3.132,3.781,68,12.18,19.48
157.1,-0.148,0.331,3.132,3.781,68,12.18,19.31
157.16,-0.067,0.249,3.132,3.781,68,12.18,19.16
157.23,0.026,0.166,3.132,3.779,62,12.18,19.03
157.29,0.169,0.207,3.132,3.779,62,12.18,18.91
157.35,0.076,0.166,3.131,3.779,62,12.18,18.79
157.42,-0.116,0.166,3.13,3.779,62,12.18,18.66
157.48,-0.113,0.207,3.13,3.776,62,12.18,18.56
157.55,-0.12,0.166,3.13,3.776,62,12.18,18.43
157.61,-0.125,0.207,3.13,3.776,62,12.18,18.35
157.68,-0.128,0.249,3.13,3.776,62,12.18,18.3
157.74,-0.129,0.228,3.13,3.775,62,12.18,18.28
157.81,-0.122,0.228,3.128,3.774,62,12.18,18.25
157.87,-0.052,0.145,3.127,3.774,62,12.18,18.23
157.94,-0.123,0.269,3.127,3.774,62,12.18,18.23
158.0,0.021,0.249,3.127,3.772,62,12.18,18.23
158.06,0.04,0.456,3.127,3.771,62,12.18,18.23
158.13,-0.058,0.29,3.125,3.771,62,12.18,18.25
158.19,0.029,0.145,3.125,3.771,61,12.18,18.26
158.26,0.174,0.249,3.125,3.771,61,12.18,18.28
158.32,0.155,0.145,3.125,3.77,61,12.18,18.29
158.39,-0.087,0.228,3.125,3.769,61,12.18,18.29
158.45,-0.097,0.166,3.122,3.769,61,12.18,18.29
158.52,-0.101,0.228,3.122,3.769,61,12.18,18.22
158.58,-0.107,0.228,3.122,3.766,61,12.2,18.18
158.65,-0.103,0.166,3.122,3.766,61,12.18,18.18
158.71,-0.101,0.207,3.122,3.766,61,12.18,18.23
158.77,-0.088,0.228,3.122,3.766,61,12.18,18.32
158.84,-0.026,0.249,3.122,3.766,61,12.18,18.42
158.9,-0.095,0.145,3.12,3.766,61,12.18,18.53
158.97,0.181,0.373,3.12,3.764,61,12.18,18.66
159.03,-0.029,0.29,3.12,3.764,61,12.18,18.86
159.1,-0.005,0.186,3.12,3.764,61,12.18,19.07
159.16,0.088,0.249,3.12,3.764,61,12.18,19.3
159.23,0.239,0.124,3.118,3.764,61,12.18,19.53
159.29,0.177,0.228,3.117,3.761,61,12.18,19.76
159.35,-0.034,0.228,3.117,3.761,61,12.18,19.98
159.42,-0.033,0.186,3.117,3.761,62,12.18,20.15
159.48,-0.034,0.104,3.115,3.761,62,12.18,20.25
159.55,-0.033,0.207,3.115,3.76,62,12.2,20.38
159.61,-0.028,0.207,3.115,3.759,62,12.18,20.63
159.68,-0.019,0.228,3.115,3.759,62,12.18,20.91
159.74,0.049,0.228,3.115,3.759,62,12.18,21.22
159.81,-0.01,0.166,3.112,3.757,62,12.18,21.49
159.87,0.066,0.207,3.112,3.756,62,12.18,21.78
159.94,0.244,0.352,3.112,3.756,62,12.18,22.08
160.0,0.063,0.29,3.112,3.756,62,12.18,22.38
160.06,0.148,0.186,3.112,3.756,62,12.18,22.65
160.13,0.291,0.145,3.112,3.754,62,12.18,22.91
160.19,0.29,0.186,3.112,3.754,62,12.18,23.15
160.26,0.045,0.29,3.112,3.754,62,12.18,23.32
160.32,0.028,0.186,3.111,3.754,65,12.18,23.46
160.39,0.022,0.249,3.11,3.752,65,12.18,23.51
160.45,0.015,0.228,3.11,3.751,65,12.18,23.63
160.52,0.01,0.186,3.11,3.751,65,12.18,23.79
160.58,0.028,0.207,3.11,3.751,65,12.18,23.93
160.65,0.065,0.186,3.11,3.751,65,12.18,24.03
160.71,-0.009,0.186,3.11,3.75,65,12.18,24.1
160.77,-0.03675095298602287,0.249,3.11,3.749,65,12.18,24.15
160.84,-0.048,0.331,3.108,3.749,65,12.18,24.16
160.9,0.072,0.249,3.108,3.749,65,12.18,24.12
160.97,0.175,0.228,3.107,3.749,65,12.18,24.03
161.03,0.32,0.166,3.107,3.747,65,12.18,23.96
161.1,0.135,0.269,3.107,3.746,65,12.18,23.81
161.16,-0.021,0.249,3.107,3.746,68,12.18,23.67
161.23,-0.026,0.228,3.107,3.746,68,12.18,23.45
161.29,-0.042,0.166,3.106,3.746,68,12.18,23.19
161.35,-0.055,0.228,3.105,3.744,68,12.18,23.0
161.42,-0.065,0.207,3.105,3.744,68,12.18,22.8
161.48,-0.032,0.207,3.105,3.744,68,12.18,22.57
161.55,-0.045,0.228,3.105,3.744,68,12.18,22.3
161.61,-0.102,0.311,3.105,3.742,68,12.18,21.97
161.68,0.251,0.394,3.102,3.742,68,12.18,21.64
161.74,-0.08,0.207,3.102,3.741,68,12.18,21.33
161.81,-0.006,0.186,3.102,3.741,68,12.18,21.0
161.87,0.107,0.207,3.102,3.741,67,12.18,20.71
161.94,0.218,0.166,3.102,3.739,67,12.18,20.45
162.0,-0.032,0.207,3.101,3.739,67,12.18,20.19
162.06,-0.119,0.228,3.1,3.739,67,12.18,19.97
162.13,-0.121,0.228,3.1,3.739,67,12.18,19.69
162.19,-0.135,0.145,3.1,3.739,67,12.18,19.36
162.26,-0.14,0.207,3.1,3.737,67,12.18,19.13
162.32,-0.14,0.186,3.1,3.736,67,12.18,18.98
162.39,-0.139,0.186,3.1,3.736,67,12.18,18.83
162.45,-0.085,0.166,3.1,3.736,67,12.18,18.7
162.52,-0.123,0.228,3.097,3.736,67,12.18,18.59
162.58,-0.16,0.269,3.097,3.736,67,12.18,18.51
162.65,0.15,0.311,3.097,3.735,67,12.18,18.46
162.71,-0.1,0.228,3.097,3.734,67,12.18,18.43
162.77,-0.032,0.186,3.097,3.734,67,12.18,18.4
162.84,0.096,0.269,3.095,3.734,62,12.18,18.39
162.9,0.179,0.207,3.095,3.734,62,12.18,18.37
162.97,-0.085,0.166,3.095,3.731,62,12.18,18.36
163.03,-0.135,0.269,3.095,3.731,62,12.18,18.35
163.1,-0.135,0.186,3.095,3.731,62,12.18,18.29
163.16,-0.144,0.186,3.095,3.731,62,12.18,18.24
163.23,-0.143,0.207,3.093,3.73,62,12.18,18.22
163.29,-0.144,0.124,3.093,3.729,62,12.18,18.22
163.35,-0.139,0.186,3.093,3.729,62,12.18,18.23
163.42,-0.105,0.145,3.093,3.729,62,12.18,18.23
163.48,-0.086,0.207,3.093,3.729,62,12.18,18.23
163.55,-0.146,0.145,3.093,3.729,62,12.18,18.24
163.61,0.2,0.331,3.09,3.727,62,12.18,18.32
163.68,-0.139,0.249,3.09,3.726,62,12.18,18.44
163.74,-0.036,0.186,3.09,3.726,62,12.18,18.57
163.81,0.076,0.166,3.09,3.726,60,12.18,18.73
163.87,0.217,0.166,3.09,3.726,60,12.18,18.97
163.94,0.015,0.166,3.088,3.724,60,12.18,19.19
164.0,-0.1,0.166,3.088,3.724,60,12.18,19.41
164.06,-0.094,0.186,3.088,3.724,60,12.18,19.57
164.13,-0.098,0.145,3.088,3.724,60,12.18,19.66
164.19,-0.097,0.207,3.088,3.724,60,12.18,19.84
164.26,-0.093,0.166,3.086,3.724,60,12.18,20.06
164.32,-0.063,0.166,3.085,3.721,60,12.18,20.32
164.39,-0.033,0.186,3.085,3.721,60,12.18,20.6
164.45,-0.096,0.207,3.085,3.721,60,12.18,20.84
164.52,0.281,0.311,3.085,3.721,60,12.18,21.13
164.58,-0.1,0.311,3.085,3.721,60,12.18,21.42
164.65,0.019,0.249,3.083,3.72,60,12.18,21.72
164.71,0.132,0.166,3.083,3.719,60,12.18,22.01
164.77,0.266,0.249,3.083,3.719,60,12.18,22.31
164.84,0.063,0.207,3.083,3.719,60,12.18,22.59
164.9,-0.054,0.228,3.083,3.719,66,12.18,22.83
164.97,-0.053,0.186,3.083,3.719,66,12.18,22.96
165.03,-0.061,0.166,3.081,3.716,66,12.18,23.03
165.1,-0.066,0.207,3.08,3.716,66,12.18,23.16
165.16,-0.049,0.228,3.08,3.716,66,12.18,23.26
165.23,-0.065,0.228,3.08,3.716,66,12.18,23.32
165.29,-0.093,0.228,3.08,3.715,66,12.18,23.32
165.35,0.313,0.269,3.08,3.714,66,12.18,23.29
165.42,-0.127,0.331,3.078,3.714,66,12.18,23.28
165.48,0.003,0.207,3.079,3.714,66,12.18,23.24
165.55,0.109,0.207,3.078,3.713,66,12.18,23.13
165.61,0.254,0.166,3.078,3.712,66,12.18,23.12
165.68,0.062,0.228,3.078,3.712,66,12.18,23.0
165.74,-0.078,0.186,3.078,3.712,70,12.18,22.9
165.81,-0.08,0.228,3.078,3.712,70,12.18,22.69
165.87,-0.091,0.249,3.076,3.712,70,12.18,22.41
165.94,-0.099,0.29,3.075,3.709,70,12.18,22.25
166.0,-0.107,0.207,3.075,3.709,70,12.18,22.1
166.06,-0.056,0.207,3.075,3.709,70,12.18,21.93
166.13,-0.095,0.228,3.074,3.709,70,12.18,21.7
166.19,-0.144,0.186,3.074,3.709,70,12.18,21.42
166.26,0.195,0.331,3.073,3.708,70,12.18,21.16
166.32,-0.096,0.311,3.073,3.707,70,12.18,20.92
166.39,-0.033,0.207,3.073,3.707,70,12.18,20.68
166.45,0.087,0.186,3.073,3.707,68,12.18,20.46
166.52,0.175,0.249,3.071,3.707,68,12.18,20.25
166.58,-0.088,0.249,3.07,3.707,68,12.18,20.0
166.65,-0.147,0.186,3.07,3.705,68,12.18,19.78
166.71,-0.146,0.249,3.07,3.704,68,12.18,19.5
166.77,-0.16,0.228,3.07,3.704,68,12.18,19.18
166.84,-0.161,0.228,3.07,3.704,68,12.18,18.95
166.9,-0.163,0.228,3.07,3.703,68,12.18,18.76
166.97,-0.162,0.166,3.068,3.702,68,12.18,18.61
167.03,-0.1,0.207,3.068,3.702,68,12.18,18.53
167.1,-0.14,0.228,3.068,3.702,68,12.18,18.46
167.16,-0.176,0.186,3.068,3.702,68,12.18,18.4
167.23,0.144,0.352,3.068,3.7,68,12.18,18.36
167.29,-0.107,0.186,3.066,3.699,68,12.18,18.33
167.35,-0.038,0.207,3.065,3.699,68,12.18,18.33
167.42,0.087,0.166,3.065,3.699,62,12.18,18.32
167.48,0.181,0.145,3.065,3.699,62,12.18,18.33
167.55,-0.078,0.145,3.065,3.699,62,12.18,18.33
167.61,-0.133,0.186,3.065,3.697,62,12.18,18.32
167.68,-0.129,0.249,3.065,3.697,62,12.18,18.27
167.74,-0.139,0.186,3.064,3.697,62,12.18,18.23
167.81,-0.137,0.186,3.063,3.697,62,12.18,18.22
167.87,-0.134,0.207,3.063,3.695,62,12.18,18.22
167.94,-0.111,0.186,3.063,3.694,62,12.18,18.23
168.0,-0.09,0.166,3.063,3.694,62,12.18,18.23
168.06,-0.067,0.207,3.061,3.694,62,12.18,18.23
168.13,-0.138,0.228,3.06,3.693,62,12.18,18.24
168.19,0.239,0.228,3.06,3.693,62,12.18,18.24
168.26,-0.173,0.29,3.06,3.692,62,12.18,18.28
168.32,-0.037,0.249,3.06,3.692,62,12.18,18.28
168.39,0.065,0.186,3.06,3.692,60,12.18,18.29
168.45,0.219,0.228,3.058,3.692,60,12.18,18.36
168.52,0.089,0.166,3.058,3.692,60,12.18,18.48
168.58,-0.085,0.269,3.058,3.69,60,12.18,18.6
168.65,-0.076,0.207,3.058,3.689,60,12.18,18.76
168.71,-0.076,0.166,3.058,3.689,60,12.18,18.86
168.77,-0.074,0.186,3.058,3.689,60,12.18,19.03
168.84,-0.071,0.228,3.055,3.689,60,12.18,19.27
168.9,-0.054,0.166,3.055,3.688,60,12.18,19.53
168.97,0.009,0.207,3.055,3.688,60,12.18,19.81
169.03,-0.061,0.249,3.055,3.687,60,12.18,20.07
169.1,0.216,0.29,3.054,3.687,60,12.18,20.34
169.16,0.005,0.373,3.053,3.687,60,12.18,20.63
169.23,0.03,0.228,3.053,3.687,60,12.18,20.92
169.29,0.125,0.228,3.053,3.687,60,12.18,21.21
169.35,0.274,0.186,3.053,3.685,60,12.18,21.5
169.42,0.195,0.166,3.053,3.684,60,12.18,21.78
169.48,-0.005,0.207,3.053,3.684,60,12.18,22.08
169.55,-0.008,0.186,3.05,3.684,60,12.18,22.31
169.61,-0.012,0.145,3.05,3.684,60,12.18,22.46
169.68,-0.02,0.207,3.05,3.683,60,12.18,22.59
169.74,-0.014,0.207,3.05,3.682,60,12.18,22.73
169.81,0.044,0.207,3.05,3.682,60,12.18,22.84
169.87,-0.035,0.186,3.05,3.682,60,12.18,22.91
169.94,0.197,0.352,3.049,3.682,65,12.18,22.94
170.0,0.066,0.311,3.048,3.682,65,12.18,22.99
