Time,ECG,EMG,foot GSR,hand GSR,HR,marker,RESP
0.0,0.117,0.355,6.39,5.293,59,,48.77
0.06,-0.139,0.306,6.386,5.291,56,,48.7
0.13,-0.142,0.373,6.385,5.288,56,,48.58
0.19,-0.143,0.376,6.381,5.285,56,,48.39
0.26,-0.152,0.23,6.379,5.283,56,,48.27
0.32,-0.155,0.166,6.376,5.28,56,,48.2
0.39,-0.156,0.363,6.375,5.278,56,,48.15
0.45,-0.155,0.272,6.37,5.273,56,,48.19
0.52,-0.148,0.254,6.369,5.271,56,,48.19
0.58,-0.096,0.119,6.366,5.269,56,,48.12
0.65,-0.153,0.161,6.364,5.266,56,,48.14
0.71,-0.141,0.373,6.362,5.264,56,,48.19
0.77,0.2,0.28,6.36,5.26,56,,48.15
0.84,-0.06,0.197,6.357,5.259,56,,48.15
0.9,0.015,0.199,6.354,5.256,56,,48.19
0.97,0.153,0.228,6.353,5.253,56,,48.21
1.03,0.223,0.199,6.35,5.251,56,,48.19
1.1,-0.093,0.228,6.348,5.248,56,,48.18
1.16,-0.143,0.163,6.344,5.245,56,,48.21
1.23,-0.133,0.228,6.343,5.243,56,,48.18
1.29,-0.142,0.161,6.34,5.24,56,,48.03
1.35,-0.148,0.228,6.338,5.238,56,,47.99
1.42,-0.15,0.329,6.335,5.235,56,,48.01
1.48,-0.151,0.225,6.333,5.233,56,,48.01
1.55,-0.146,0.228,6.33,5.229,56,,48.04
1.61,-0.094,0.274,6.328,5.228,56,,48.07
1.68,-0.14,0.228,6.325,5.224,56,,48.08
1.74,-0.144,0.329,6.323,5.223,56,,48.13
1.81,0.217,0.368,6.319,5.219,56,,48.28
1.87,-0.054,0.295,6.318,5.216,56,,48.53
1.94,0.018,0.116,6.315,5.214,56,,48.72
2.0,0.16,0.1970981308411215,6.313,5.213,56,,48.94
2.06,0.253,0.311,6.31,5.211,56,,49.17
2.13,-0.065,0.363,6.308,5.207,56,,49.38
2.19,-0.128,0.228,6.304,5.206,57,,49.59
2.26,-0.119,0.116,6.303,5.203,57,,49.77
2.32,-0.121,0.274,6.3,5.201,57,,49.91
2.39,-0.12,0.313,6.299,5.197,57,,50.08
2.45,-0.116,0.295,6.295,5.196,57,,50.23
2.52,-0.079,0.228,6.294,5.192,57,,50.4
2.58,-0.089,0.254,6.29,5.189,57,,50.57
2.65,-0.118,0.22,6.289,5.187,57,,50.6
2.71,0.283,0.293,6.285,5.184,57,,50.63
2.77,-0.111,0.298,6.284,5.182,57,,50.69
2.84,0.001,0.2305,6.282,5.181,57,,50.67
2.9,0.114,0.163,6.279,5.178,57,,50.59
2.97,0.265,0.225,6.277,5.174,57,,50.49
3.03,0.018,0.368,6.274,5.173,57,,50.39
3.1,-0.13,0.23,6.272,5.171,65,,50.24
3.16,-0.124,0.347,6.27,5.168,65,,50.04
3.23,-0.13,0.407,6.267,5.166,65,,49.82
3.29,-0.139,0.386,6.265,5.163,65,,49.59
3.35,-0.141,0.313,6.262,5.161,65,,49.41
3.42,-0.109,0.27060906040268456,6.26,5.158,65,,49.27
3.48,-0.104,0.251,6.257,5.156,65,,49.17
3.55,-0.15,0.332,6.255,5.153,65,,49.06
3.61,0.288,0.249,6.253,5.152,65,,48.93
3.68,-0.147,0.332,6.251,5.149,65,,48.82
3.74,-0.014,0.251,6.248,5.147,65,,48.73
3.81,0.099,0.163,6.246,5.146,65,,48.68
3.87,0.034,0.272,6.245,5.142,65,,48.62
3.94,-0.044,0.272,6.242,5.141,65,,48.55
4.0,-0.135,0.272,6.24,5.138,65,,48.48
4.06,-0.126,0.36,6.237,5.136,65,,48.44
4.13,-0.125,0.383,6.236,5.133,65,,48.32
4.19,-0.132,0.308,6.231,5.128,65,,48.19
4.26,-0.132,0.233,6.23,5.128,65,,48.19
4.32,-0.124,0.23,6.227,5.126,65,,48.18
4.39,-0.061,0.277,6.226,5.124,65,,48.2
4.45,-0.125,0.29,6.222,5.121,65,,48.19
4.52,-0.058,0.269,6.22,5.12,65,,48.17
4.58,0.197,0.277,6.217,5.116,65,,48.17
4.65,-0.026,0.295,6.216,5.115,65,,48.19
4.71,0.062,0.254,6.213,5.112,65,,48.2
4.77,0.215,0.2710534709193246,6.211,5.11,65,,48.21
4.84,0.242,0.303,6.208,5.109,65,,48.21
4.9,-0.066,0.339,6.207,5.105,65,,48.21
4.97,-0.089,0.295,6.203,5.104,64,,48.19
5.03,-0.075,0.17931718061674004,6.202,5.101,64,,48.19
5.1,-0.071,0.093,6.2,5.099,64,,48.1
5.16,-0.079,0.17635055865921787,6.197,5.096,64,,48.07
5.23,-0.071,0.264,6.195,5.095,64,,48.08
5.29,-0.073,0.269,6.192,5.09,64,,48.09
5.35,-0.022,0.272,6.19,5.087,64,,48.07
5.42,-0.089,0.119,6.187,5.086,64,,47.98
5.48,0.121,0.318,6.186,5.087,64,,47.96
5.55,0.121,0.298,6.184,5.086,64,,48.09
5.61,0.033,0.228,6.181,5.086,64,,48.16
5.68,0.122,0.22567826086956522,6.179,5.087,64,,48.37
5.74,0.272,0.225,6.176,5.091,64,,48.72
5.81,0.24,0.295,6.175,5.089,64,,49.0
5.87,-0.034,0.399,6.173,5.087,64,,49.13
5.94,-0.045,0.274,6.17,5.084,62,,49.15
6.0,-0.047,0.163,6.168,5.081,62,,49.05
6.06,-0.059,0.161,6.165,5.077,62,,48.91
6.13,-0.057,0.332,6.163,5.075,62,,49.06
6.19,-0.01,0.339,6.16,5.071,62,,49.35
6.26,-0.082,0.383,6.158,5.07,62,,49.71
6.32,0.193,0.3,6.155,5.067,62,,49.98
6.39,0.028,0.339,6.153,5.065,62,,50.17
6.45,0.018,0.355,6.151,5.062,62,,50.31
6.52,0.118,0.274,6.148,5.06,62,,50.48
6.58,0.276,0.228,6.146,5.057,62,,50.68
6.65,0.178,0.347,6.144,5.054,62,,50.89
6.71,-0.065,0.339,6.141,5.051,71,,51.14
6.77,-0.073,0.311,6.139,5.05,71,,51.35
6.84,-0.072,0.228,6.136,5.047,71,,51.45
6.9,-0.094,0.352,6.134,5.045,71,,51.46
6.97,-0.047,0.321,6.131,5.042,71,,51.51
7.03,-0.07,0.326,6.13,5.04,71,,51.53
7.1,-0.114,0.368,6.126,5.038,71,,51.52
7.16,0.299,0.225,6.125,5.035,71,,51.4
7.23,-0.093,0.256,6.121,5.034,71,,51.17
7.29,0.015,0.332,6.12,5.032,71,,50.89
7.35,0.14,0.355,6.118,5.03,71,,50.6
7.42,0.285,0.386,6.115,5.029,71,,50.34
7.48,0.016,0.373,6.113,5.028,71,,50.1
7.55,-0.106,0.355,6.11,5.027,73,,49.83
7.61,-0.092,0.332,6.108,5.029,73,,49.6
7.68,-0.095,0.194,6.105,5.03,73,,49.36
7.74,-0.107,0.251,6.103,5.033,73,,49.15
7.81,-0.109,0.163,6.1,5.035,73,,49.0
7.87,-0.04,0.269,6.099,5.041,73,,48.91
7.94,-0.104,0.396,6.097,5.048,73,,48.9
8.0,-0.111,0.329,6.096,5.057,73,,48.85
8.06,0.249,0.365,6.093,5.068,73,,48.78
8.13,-0.031,0.22,6.093,5.082,73,,48.76
8.19,0.04,0.228,6.091,5.097,73,,48.76
8.26,0.183,0.23,6.091,5.116,73,,48.77
8.32,0.25,0.269,6.091,5.139,73,,48.79
8.39,-0.064,0.422,6.091,5.163,73,,48.76
8.45,-0.117,0.298,6.094,5.184,68,,48.74
8.52,-0.113,0.295,6.097,5.204,68,,48.72
8.58,-0.131,0.277,6.101,5.224,68,,48.62
8.65,-0.141,0.316,6.106,5.246,68,,48.58
8.71,-0.147,0.168,6.114,5.269,68,,48.57
8.77,-0.143,0.401,6.122,5.293,68,,48.58
8.84,-0.081,0.197,6.132,5.315,68,,48.61
8.9,-0.151,0.22299999999999998,6.145,5.337,68,,48.59
8.97,-0.135,0.249,6.157,5.357,68,,48.59
9.03,0.189,0.228,6.171,5.377,68,,48.59
9.1,-0.076,0.23,6.186,5.399,68,,48.6
9.16,0.001,0.1745,6.201,5.419,68,,48.63
9.23,0.15,0.119,6.216,5.438,62,,48.64
9.29,0.215,0.28,6.233,5.451,62,,48.64
9.35,-0.094,0.357,6.251,5.465,62,,48.63
9.42,-0.14,0.293,6.267,5.476,62,,48.61
9.48,-0.134,0.313,6.284,5.483,62,,48.58
9.55,-0.143,0.259,6.3,5.49,62,,48.48
9.61,-0.153,0.274,6.317,5.495,62,,48.47
9.68,-0.154,0.313,6.333,5.499,62,,48.47
9.74,-0.152,0.3,6.348,5.502,62,,48.47
9.81,-0.122,0.316,6.361,5.506,62,,48.49
9.87,-0.119,0.23,6.375,5.507,62,,48.49
9.94,-0.158,0.199,6.386,5.509,62,,48.49
10.0,0.272,0.264,6.398,5.505,62,,48.5
10.06,-0.165,0.376,6.408,5.504,62,,48.54
10.13,-0.035,0.298,6.418,5.5,62,,48.57
10.19,0.077,0.199,6.426,5.495,62,,48.58
10.26,0.246,0.119,6.432,5.49,62,,48.57
10.32,0.077,0.332,6.437,5.485,62,,48.58
10.39,-0.119,0.116,6.444,5.48,60,,48.57
10.45,-0.114,0.114,6.447,5.474,60,,48.56
10.52,-0.113,0.114,6.45,5.468,60,,48.49
10.58,-0.121,0.228,6.451,5.461,60,,48.43
10.65,-0.117,0.295,6.452,5.454,60,,48.43
10.71,-0.11,0.22,6.451,5.448,60,,48.42
10.77,-0.103,0.313,6.45,5.44,60,,48.44
10.84,-0.053,0.409,6.447,5.433,60,,48.45
10.9,-0.111,0.3,6.442,5.426,60,,48.43
10.97,-0.089,0.197,6.44,5.419,60,,48.43
11.03,0.231,0.352,6.435,5.411,60,,48.48
11.1,-0.032,0.256,6.43,5.405,60,,48.55
11.16,0.047,0.19199155269509252,6.425,5.398,60,,48.63
11.23,0.198,0.161,6.418,5.392,60,,48.76
11.29,0.265,0.29,6.412,5.386,60,,48.9
11.35,-0.05,0.355,6.405,5.379,60,,49.06
11.42,-0.1,0.192,6.397,5.372,60,,49.24
11.48,-0.09,0.23211214953271028,6.392,5.366,60,,49.38
11.55,-0.1,0.308,6.385,5.361,60,,49.46
11.61,-0.105,0.396,6.377,5.354,60,,49.62
11.68,-0.103,0.321,6.37,5.348,60,,49.8
11.74,-0.085,0.246,6.364,5.342,60,,50.01
11.81,-0.049,0.202,6.358,5.336,60,,50.2
11.87,-0.104,0.20712790697674419,6.35,5.331,60,,50.32
11.94,0.13,0.223,6.343,5.326,60,,50.43
12.0,0.075,0.355,6.336,5.321,60,,50.57
12.06,-0.003,0.332,6.33,5.316,60,,50.71
12.13,0.09,0.329,6.323,5.311,60,,50.78
12.19,0.249,0.116,6.318,5.306,60,,50.74
12.26,0.188,0.228,6.31,5.303,60,,50.65
12.32,-0.074,0.228,6.305,5.299,63,,50.48
12.39,-0.091,0.225,6.298,5.294,63,,50.28
12.45,-0.089,0.274,6.293,5.289,63,,50.07
12.52,-0.105,0.199,6.288,5.286,63,,49.82
12.58,-0.108,0.274,6.28,5.281,63,,49.63
12.65,-0.108,0.295,6.275,5.276,63,,49.49
12.71,-0.1,0.329,6.271,5.271,63,,49.4
12.77,-0.048,0.329,6.266,5.268,63,,49.31
12.84,-0.105,0.254,6.261,5.264,63,,49.21
12.9,-0.06,0.269,6.253,5.259,63,,49.11
12.97,0.246,0.293,6.249,5.256,63,,49.07
13.03,-0.01,0.313,6.246,5.253,63,,49.03
13.1,0.071,0.293,6.241,5.249,63,,49.0
13.16,0.229,0.295,6.236,5.244,63,,48.97
13.23,0.287,0.311,6.231,5.241,63,,48.93
13.29,-0.03,0.376,6.226,5.238,63,,48.89
13.35,-0.072,0.339,6.221,5.234,60,,48.85
13.42,-0.061,0.342,6.217,5.231,60,,48.81
13.48,-0.068,0.199,6.213,5.228,60,,48.68
13.55,-0.077,0.161,6.208,5.224,60,,48.64
13.61,-0.078,0.163,6.205,5.22,60,,48.61
13.68,-0.074,0.161,6.201,5.218,60,,48.61
13.74,-0.057,0.199,6.196,5.214,60,,48.64
13.81,-0.027,0.334,6.192,5.212,60,,48.63
13.87,-0.08,0.2925,6.188,5.208,60,,48.62
13.94,0.241,0.251,6.185,5.204,60,,48.63
14.0,0.023,0.368,6.181,5.202,60,,48.65
14.06,0.034,0.401,6.178,5.199,60,,48.68
14.13,0.131,0.293,6.174,5.196,60,,48.68
14.19,0.307,0.24847289082588486,6.171,5.193,60,,48.68
14.26,0.232,0.228,6.166,5.189,60,,48.69
14.32,-0.042,0.225,6.164,5.186,60,,48.68
14.39,-0.043,0.197,6.159,5.183,59,,48.68
14.45,-0.042,0.197,6.156,5.181,59,,48.62
14.52,-0.054,0.378,6.153,5.178,59,,48.54
14.58,-0.059,0.251,6.149,5.174,59,,48.53
14.65,-0.058,0.2795,6.146,5.172,59,,48.53
14.71,-0.054,0.308,6.139,5.166,59,,48.58
14.77,-0.037,0.251,6.139,5.167,59,,48.58
14.84,0.003,0.228,6.136,5.163,59,,48.56
14.9,-0.048,0.228,6.134,5.159,59,,48.54
14.97,0.188,0.269,6.13,5.157,59,,48.58
15.03,0.124,0.376,6.126,5.154,59,,48.6
15.1,0.06,0.228,6.123,5.152,59,,48.61
15.16,0.152,0.256,6.12,5.149,59,,48.6
15.23,0.324,0.228,6.116,5.147,59,,48.62
15.29,0.286,0.285,6.114,5.143,59,,48.62
15.35,-0.004,0.295,6.11,5.141,59,,48.61
15.42,-0.022,0.254,6.109,5.138,58,,48.59
15.48,-0.014,0.194,6.105,5.136,58,,48.55
15.55,-0.023,0.251,6.103,5.133,58,,48.47
15.61,-0.022,0.254,6.1,5.131,58,,48.5
15.68,-0.015,0.206,6.097,5.127,58,,48.61
15.74,-0.011,0.158,6.093,5.125,58,,48.76
15.81,0.024,0.194,6.091,5.122,58,,48.95
15.87,0.035,0.313,6.087,5.12,58,,49.1
15.94,0.005,0.3015,6.084,5.117,58,,49.27
16.0,0.00908,0.29,6.082,5.115,58,,49.46
16.06,0.022,0.332,6.079,5.112,58,,49.66
16.13,0.152,0.277,6.077,5.11,58,,49.86
16.19,0.27,0.334,6.073,5.107,58,,50.02
16.26,0.264771978021978,0.30300000000000005,6.071,5.105,58,,50.2
16.32,0.248,0.272,6.068,5.102,58,,50.38
16.39,0.057,0.409,6.066,5.1,58,,50.56
16.45,0.056,0.259,6.063,5.097,58,,50.72
16.52,0.044,0.391,6.061,5.095,58,,50.83
16.58,0.034,0.313,6.057,5.092,58,,50.9
16.65,0.029,0.378,6.054,5.09,58,,50.96
16.71,0.032,0.286,6.051,5.087,58,,50.97
16.77,0.073,0.194,6.048,5.085,58,,50.93
16.84,0.008,0.376,6.046,5.084,58,,50.83
16.9,0.102,0.306,6.043,5.08,59,,50.64
16.97,0.312,0.396,6.041,5.077,59,,50.43
17.03,0.089,0.114,6.038,5.076,59,,50.28
17.1,0.168,0.197,6.034,5.074,59,,50.14
17.16,0.326,0.329,6.032,5.071,59,,49.99
17.23,0.336,0.368,6.029,5.067,59,,49.82
17.29,0.018,0.347,6.027,5.066,59,,49.65
17.35,-0.013,0.163,6.024,5.064,59,,49.49
17.42,-0.01,0.111,6.022,5.061,50,,49.32
17.48,-0.022,0.357,6.018,5.059,50,,49.11
17.55,-0.033,0.254,6.016,5.056,50,,48.98
17.61,-0.038,0.272,6.013,5.054,50,,48.9
17.68,-0.019,0.163,6.011,5.051,50,,48.85
17.74,0.001,0.228,6.009,5.049,50,,48.82
17.81,-0.054,0.163,6.006,5.046,50,,48.75
17.87,0.329,0.251,6.004,5.045,50,,48.71
17.94,-0.018,0.342,6.0,5.042,50,,48.71
18.0,0.05,0.376,5.999,5.04,50,,48.71
18.06,0.144,0.197,5.995,5.038,50,,48.71
18.13,0.322,0.116,5.994,5.037,50,,48.7
18.19,0.204,0.114,5.991,5.034,50,,48.7
18.26,-0.055,0.163,5.989,5.032,50,,48.68
18.32,-0.06,0.355,5.986,5.029,50,,48.68
18.39,-0.059,0.425,5.984,5.027,50,,48.61
18.45,-0.072,0.293,5.981,5.024,50,,48.53
18.52,-0.08,0.24234160958904105,5.979,5.022,50,,48.5
18.58,-0.083,0.197,5.975,5.02,50,,48.51
18.65,-0.053,0.111,5.974,5.017,50,,48.51
18.71,-0.058,0.37,5.971,5.015,50,,48.54
18.77,-0.101,0.22,5.969,5.013,50,,48.52
18.84,0.339,0.269,5.966,5.012,50,,48.52
18.9,-0.115,0.313,5.964,5.008,50,,48.54
18.97,0.016,0.269,5.961,5.007,50,,48.57
19.03,0.119,0.2862849284928493,5.959,5.004,62,,48.58
19.1,0.299,0.3249031903190319,5.957,5.002,62,,48.58
19.16,0.128,0.365,5.955,5.0,62,,48.58
19.23,-0.095,0.401,5.952,4.998,62,,48.56
19.29,-0.1,0.295,5.95,4.995,62,,48.55
19.35,-0.097,0.365,5.947,4.994,62,,48.51
19.42,-0.106,0.277,5.946,4.992,62,,48.5
19.48,-0.113,0.249,5.942,4.989,62,,48.61
19.55,-0.109,0.249,5.94,4.987,62,,48.75
19.61,-0.078,0.197,5.937,4.984,62,,48.94
19.68,-0.07,0.308,5.936,4.983,62,,49.14
19.74,-0.111,0.194,5.934,4.982,62,,49.3
19.81,0.311,0.202,5.931,4.979,62,,49.47
19.87,-0.099,0.339,5.929,4.978,62,,49.68
19.94,0.008,0.166,5.926,4.975,62,,49.9
20.0,0.112,0.197,5.925,4.974,61,,50.08
20.06,0.301,0.27730063291139245,5.922,4.972,61,,50.25
20.13,0.174,0.337,5.92,4.97,61,,50.44
20.19,-0.064,0.277,5.919,4.969,61,,50.59
20.26,-0.075,0.228,5.917,4.967,61,,50.74
20.32,-0.08,0.228,5.914,4.967,61,,50.86
20.39,-0.093,0.274,5.912,4.964,61,,50.9
20.45,-0.101,0.249,5.909,4.963,61,,50.94
20.52,-0.082,0.357,5.907,4.96,61,,50.89
20.58,-0.066,0.228,5.904,4.959,61,,50.82
20.65,-0.116,0.295,5.902,4.957,61,,50.69
20.71,0.196,0.23,5.899,4.955,61,,50.47
20.77,0.004,0.342,5.897,4.954,61,,50.26
20.84,-0.007,0.197,5.894,4.952,61,,50.09
20.9,0.089,0.163,5.892,4.95,65,,49.94
20.97,0.268,0.116,5.89,4.95,65,,49.76
21.03,0.179,0.306,5.888,4.947,65,,49.56
21.1,-0.092,0.36,5.885,4.946,65,,49.38
21.16,-0.098,0.342,5.883,4.945,65,,49.23
21.23,-0.096,0.3095941514656825,5.882,4.942,65,,49.06
21.29,-0.106,0.254,5.879,4.941,65,,48.87
21.35,-0.112,0.116,5.877,4.938,65,,48.78
21.42,-0.112,0.116,5.874,4.937,65,,48.74
21.48,-0.107,0.194,5.872,4.935,65,,48.7
21.55,-0.06,0.228,5.869,4.933,65,,48.65
21.61,-0.117,0.311,5.868,4.931,65,,48.6
21.68,-0.116,0.308,5.865,4.93,65,,48.6
21.74,0.262,0.29,5.863,4.927,65,,48.63
21.81,-0.032,0.378,5.86,4.925,65,,48.63
21.87,0.037,0.274,5.859,4.923,65,,48.62
21.94,0.18,0.27911954459203037,5.857,4.921,60,,48.61
22.0,0.287,0.293,5.854,4.92,60,,48.6
22.06,-0.049,0.347,5.852,4.917,60,,48.59
22.13,-0.117,0.352,5.852,4.915,60,,48.58
22.19,-0.111,0.326,5.849,4.913,60,,48.58
22.26,-0.121,0.163,5.845,4.912,60,,48.48
22.32,-0.137,0.251,5.844,4.91,60,,48.42
22.39,-0.136,0.197,5.842,4.907,60,,48.42
22.45,-0.142,0.2145880281690141,5.839,4.906,60,,48.43
22.52,-0.133,0.251,5.837,4.903,60,,48.47
22.58,-0.083,0.306,5.835,4.901,60,,48.47
22.65,-0.144,0.399,5.833,4.898,60,,48.44
22.71,-0.117,0.344,5.832,4.897,60,,48.46
22.77,0.214,0.313,5.83,4.895,60,,48.48
22.84,-0.056,0.295,5.828,4.893,60,,48.5
22.9,0.016,0.228,5.825,4.891,60,,48.52
22.97,0.165,0.225,5.823,4.888,58,,48.54
23.03,0.245,0.357,5.821,4.887,58,,48.54
23.1,-0.092,0.249,5.818,4.885,58,,48.53
23.16,-0.146,0.166,5.817,4.882,58,,48.52
23.23,-0.138,0.254,5.816,4.882,58,,48.5
23.29,-0.15,0.288,5.813,4.878,58,,48.44
23.35,-0.158,0.163,5.811,4.877,58,,48.42
23.42,-0.161,0.293,5.81,4.875,58,,48.42
23.48,-0.159,0.316,5.807,4.872,58,,48.46
23.55,-0.155,0.119,5.805,4.87,58,,48.57
23.61,-0.106,0.114,5.802,4.87,58,,48.67
23.68,-0.151,0.344,5.801,4.867,58,,48.79
23.74,-0.166,0.342,5.798,4.865,58,,49.0
23.81,0.228,0.3,5.797,4.863,58,,49.27
23.87,-0.08,0.311,5.795,4.861,58,,49.49
23.94,-0.006,0.163,5.792,4.86,58,,49.68
24.0,0.132,0.18536338289962825,5.79,4.858,57,,49.87
24.06,0.275,0.241,5.788,4.855,57,,50.06
24.13,-0.04,0.394,5.786,4.854,57,,50.24
24.19,-0.135,0.262,5.785,4.853,57,,50.42
24.26,-0.135,0.324,5.782,4.85,57,,50.59
24.32,-0.145,0.254,5.781,4.849,57,,50.67
24.39,-0.166,0.347,5.778,4.846,57,,50.77
24.45,-0.172,0.163,5.777,4.844,57,,50.88
24.52,-0.152,0.228,5.775,4.843,57,,50.98
24.58,-0.118,0.313,5.772,4.84,57,,51.01
24.65,-0.174,0.36,5.77,4.839,57,,50.93
24.71,0.141,0.282,5.767,4.838,57,,50.81
24.77,-0.047,0.404,5.766,4.835,57,,50.73
24.84,-0.063,0.251,5.765,4.833,57,,50.67
24.9,0.036,0.166,5.762,4.833,63,,50.6
24.97,0.21,0.116,5.76,4.829,63,,50.5
25.03,0.129,0.324,5.758,4.828,63,,50.38
25.1,-0.144,0.308,5.757,4.826,63,,50.23
25.16,-0.157,0.194,5.753,4.824,63,,50.09
25.23,-0.151,0.1270706134094151,5.752,4.823,63,,49.92
25.29,-0.165,0.096,5.75,4.82,63,,49.69
25.35,-0.202,0.469,5.747,4.818,63,,49.51
25.42,-0.235,0.505,5.746,4.816,63,,49.4
25.48,-0.158,0.161,5.745,4.815,63,,49.32
25.55,-0.105,0.244,5.743,4.813,63,,49.27
25.61,-0.184,0.277,5.74,4.811,63,,49.18
25.68,-0.142,0.251,5.739,4.809,63,,49.06
25.74,0.231,0.274,5.736,4.808,63,,48.67
25.81,-0.039,0.321,5.735,4.808,63,,48.34
25.87,0.039,0.35,5.733,4.806,63,,48.16
25.94,0.183,0.194,5.73,4.805,63,,48.19
26.0,0.287,0.274,5.729,4.803,63,,48.33
26.06,-0.047,0.36,5.725,4.803,63,,48.61
26.13,-0.143,0.332,5.724,4.8,60,,48.81
26.19,-0.158,0.29,5.723,4.799,60,,48.89
26.26,-0.168,0.116,5.72,4.798,60,,48.54
26.32,-0.183,0.161,5.718,4.795,60,,48.36
26.39,-0.187,0.116,5.715,4.793,60,,48.55
26.45,-0.161,0.14434343434343436,5.715,4.79,60,,48.72
26.52,-0.17,0.20335353535353537,5.713,4.79,60,,49.3
26.58,-0.212,0.254,5.71,4.788,60,,50.12
26.65,0.234,0.282,5.71,4.786,60,,50.64
26.71,-0.226,0.326,5.708,4.784,60,,50.99
26.77,-0.099,0.251,5.705,4.783,60,,51.24
26.84,0.01,0.36,5.705,4.781,64,,51.38
26.9,0.198,0.36,5.703,4.78,64,,51.44
26.97,0.0,0.37,5.701,4.778,64,,51.43
27.03,-0.196,0.355,5.7,4.776,64,,51.58
27.1,-0.201,0.269,5.698,4.775,64,,51.83
27.16,-0.19,0.388,5.696,4.773,64,,51.98
27.23,-0.206,0.052,5.695,4.773,64,,52.03
27.29,-0.176,0.116,5.694,4.771,64,,52.16
27.35,-0.161,0.254,5.691,4.771,64,,52.35
27.42,-0.217,0.163,5.69,4.771,64,,52.73
27.48,0.229,0.272,5.689,4.771,64,,53.45
27.55,-0.228,0.394,5.688,4.772,64,,54.21
27.61,-0.104,0.272,5.685,4.773,64,,54.52
27.68,0.013,0.308,5.685,4.776,71,,54.6
27.74,0.203,0.114,5.683,4.781,71,,54.42
27.81,-0.002,0.376,5.683,4.787,71,,54.13
27.87,-0.202,0.401,5.68,4.795,71,,53.84
27.94,-0.184,0.298,5.68,4.805,71,,53.65
28.0,-0.181,0.116,5.683,4.816,71,,53.59
28.06,-0.189,0.151,5.684,4.829,71,,53.57
28.13,-0.155,0.21600000000000003,5.689,4.844,71,,53.6
28.19,-0.153,0.251,5.694,4.858,71,,53.6
28.26,-0.214,0.251,5.699,4.871,71,,53.44
28.32,0.233,0.223,5.704,4.888,71,,53.0
28.39,-0.224,0.313,5.71,4.907,71,,52.1
28.45,-0.107,0.228,5.716,4.925,71,,50.89
28.52,0.025,0.401,5.725,4.942,71,,50.08
28.58,0.204,0.256,5.734,4.96,71,,49.88
28.65,0.0,0.347,5.742,4.977,71,,49.7
28.71,-0.16,0.228,5.752,4.993,71,,49.62
28.77,-0.155,0.332,5.763,5.01,71,,49.24
28.84,-0.158,0.342,5.774,5.026,71,,47.66
28.9,-0.151,0.329,5.788,5.042,71,,46.61
28.97,-0.113,0.192,5.802,5.061,71,,46.41
29.03,-0.194,0.357,5.816,5.081,71,,46.7
29.1,0.153,0.342,5.83,5.102,71,,46.85
29.16,-0.114,0.311,5.845,5.131,71,,47.04
29.23,-0.061,0.381,5.86,5.16,71,,47.52
29.29,0.042,0.241,5.877,5.19,71,,47.92
29.35,0.221,0.2657889245585875,5.893,5.222,71,,48.06
29.42,0.1,0.308,5.912,5.26,71,,48.17
29.48,-0.14,0.344,5.931,5.306,76,,48.24
29.55,-0.141,0.163,5.952,5.347,76,,48.46
29.61,-0.139,0.269,5.975,5.393,76,,48.79
29.68,-0.15,0.396,5.999,5.438,76,,48.89
29.74,-0.098,0.28,6.024,5.481,76,,48.89
29.81,-0.142,0.342,6.049,5.524,76,,49.0
29.87,-0.167,0.274,6.077,5.563,76,,49.11
29.94,0.209,0.256,6.105,5.599,76,,49.05
30.0,-0.075,0.412,6.135,5.634,76,,48.82
30.06,0.004,0.295,6.165,5.67,76,,48.71
30.13,0.139,0.28508116883116885,6.197,5.704,76,,48.87
30.19,0.262,0.282,6.227,5.74,76,,48.98
30.26,-0.048,0.422,6.259,5.776,76,,48.94
30.32,-0.118,0.326,6.291,5.811,74,,48.94
30.39,-0.109,0.254,6.323,5.848,74,,48.86
30.45,-0.078,0.119,6.356,5.887,74,,48.7
30.52,-0.072,0.202,6.388,5.926,74,,48.55
30.58,-0.134,0.295,6.416,5.971,74,,48.45
30.65,0.296,0.285,6.446,6.027,74,,48.36
30.71,-0.135,0.303,6.472,6.082,74,,48.33
30.77,0.006,0.119,6.497,6.131,74,,48.35
30.84,0.13,0.166,6.521,6.181,74,,48.32
30.9,0.298,0.161,6.543,6.235,74,,48.35
30.97,0.057,0.267,6.563,6.288,74,,48.47
31.03,-0.078,0.414,6.583,6.323,81,,48.66
31.1,-0.062,0.277,6.603,6.353,81,,48.86
31.16,-0.055,0.163,6.62,6.386,81,,48.91
31.23,-0.01,0.254,6.64,6.413,81,,48.87
31.29,-0.095,0.293,6.657,6.442,81,,48.89
31.35,0.053,0.228,6.677,6.459,81,,48.9
31.42,0.128,0.368,6.695,6.473,81,,48.89
31.48,-0.016,0.34128125,6.712,6.489,81,,48.84
31.55,0.07,0.28250000000000003,6.728,6.498,81,,48.8
31.61,0.233,0.22371875000000005,6.743,6.509,81,,48.84
31.68,0.186,0.197,6.756,6.522,81,,48.9
31.74,-0.072,0.332,6.766,6.528,81,,48.9
31.81,-0.079,0.254,6.778,6.524,81,,48.87
31.87,-0.078,0.199,6.786,6.518,81,,48.83
31.94,-0.093,0.272,6.793,6.51,81,,48.76
32.0,-0.099,0.163,6.798,6.494,81,,48.78
32.06,-0.038,0.114,6.799,6.479,81,,48.85
32.13,-0.084,0.274,6.802,6.463,81,,49.0
32.19,-0.105,0.329,6.802,6.445,81,,49.15
32.26,0.286,0.251,6.799,6.426,81,,49.28
32.32,-0.044,0.28,6.795,6.405,81,,49.46
32.39,0.042,0.293,6.793,6.38,81,,49.64
32.45,0.172,0.155,6.786,6.355,81,,49.83
32.52,0.313,0.244,6.78,6.333,81,,50.02
32.58,0.048,0.363,6.773,6.308,81,,50.17
32.65,-0.045,0.388,6.764,6.284,69,,50.33
32.71,-0.042,0.376,6.754,6.263,69,,50.47
32.77,-0.054,0.251,6.744,6.241,69,,50.54
32.84,-0.063,0.251,6.733,6.22,69,,50.64
32.9,-0.04,0.251,6.721,6.2,69,,50.81
32.97,-0.015,0.251,6.709,6.18,69,,51.01
33.03,-0.076,0.254,6.697,6.163,69,,51.2
33.1,0.278,0.269,6.683,6.144,69,,51.29
33.16,-0.001,0.313,6.671,6.128,69,,51.38
33.23,0.038,0.155,6.658,6.111,69,,51.49
33.29,0.137,0.298,6.646,6.094,69,,51.6
33.35,0.295,0.199,6.633,6.079,69,,51.71
33.42,0.191,0.251,6.62,6.063,69,,51.79
33.48,-0.03,0.378,6.607,6.047,69,,51.88
33.55,-0.043,0.254,6.595,6.034,69,,51.94
33.61,-0.053,0.199,6.582,6.018,69,,51.9
33.68,-0.065,0.306,6.57,6.005,69,,51.84
33.74,-0.058,0.274,6.557,5.992,69,,51.79
33.81,0.004,0.272,6.546,5.978,69,,51.75
33.87,-0.063,0.277,6.535,5.966,69,,51.74
33.94,-0.039,0.277,6.524,5.953,69,,51.67
34.0,0.311,0.293,6.513,5.941,69,,51.56
34.06,0.024,0.249,6.503,5.93,69,,51.48
34.13,0.1,0.114,6.493,5.919,69,,51.42
34.19,0.236,0.313,6.482,5.909,69,,51.35
34.26,0.28,0.225,6.473,5.896,69,,51.27
34.32,-0.013,0.311,6.463,5.886,69,13.91,51.14
34.39,-0.049,0.116,6.453,5.876,69,13.87,50.98
34.45,-0.043,0.344,6.443,5.866,69,13.95,50.79
34.52,-0.055,0.303,6.435,5.856,69,13.87,50.54
34.58,-0.067,0.293,6.426,5.846,69,13.86,50.34
34.65,-0.07,0.225,6.418,5.836,69,13.82,50.19
34.71,-0.038,0.199,6.41,5.829,69,13.95,50.08
34.77,-0.043,0.199,6.401,5.819,69,13.99,49.95
34.84,-0.092,0.228,6.393,5.812,69,14.15,49.81
34.9,-0.09507038834951456,0.197,6.386,5.803,69,14.03,49.67
34.97,-0.096,0.3,6.378,5.794,69,13.87,49.57
35.03,0.038,0.298,6.371,5.787,69,13.95,49.49
35.1,0.154,0.363,6.364,5.778,69,14.06,49.4
35.16,0.325,0.388,6.358,5.772,69,13.95,49.29
35.23,0.143,0.378,6.35,5.764,69,13.93,49.2
35.29,-0.045,0.303,6.343,5.757,64,13.99,49.09
35.35,-0.045,0.277,6.338,5.749,64,13.94,49.0
35.42,-0.053,0.368,6.33,5.744,64,13.95,48.82
35.48,-0.068,0.409,6.324,5.737,64,13.93,48.67
35.55,-0.074,0.373,6.318,5.73,64,13.93,48.61
35.61,-0.077,0.376,6.313,5.724,64,13.93,48.57
35.68,-0.037,0.293,6.305,5.716,64,13.91,48.56
35.74,-0.056,0.225,6.3,5.711,64,13.92,48.51
35.81,-0.088,0.254,6.295,5.704,64,13.92,48.46
35.87,0.343,0.267,6.288,5.697,64,13.91,48.45
35.94,-0.076,0.35,6.283,5.691,64,13.91,48.45
36.0,0.048,0.254,6.278,5.686,64,13.91,48.47
36.06,0.166,0.35,6.273,5.679,64,13.89,48.48
36.13,0.332,0.116,6.266,5.674,64,13.89,48.47
36.19,0.121,0.329,6.262,5.667,64,13.89,48.47
36.26,-0.044,0.199,6.256,5.661,62,13.89,48.47
36.32,-0.042,0.199,6.251,5.657,62,13.89,48.44
36.39,-0.057,0.272,6.248,5.652,62,13.89,48.36
36.45,-0.069,0.295,6.243,5.647,62,13.88,48.31
36.52,-0.078,0.269,6.238,5.639,62,13.88,48.31
36.58,-0.071,0.197,6.233,5.634,62,13.87,48.32
36.65,-0.058,0.277,6.228,5.629,62,13.87,48.36
36.71,-0.031,0.23,6.223,5.624,62,13.87,48.36
36.77,-0.092,0.254,6.218,5.617,62,13.87,48.35
36.84,0.191,0.272,6.213,5.612,62,13.87,48.36
36.9,0.007,0.329,6.211,5.607,62,13.86,48.4
36.97,-0.006,0.272,6.206,5.602,62,13.86,48.42
37.03,0.085,0.116,6.201,5.597,62,13.86,48.43
37.1,0.253,0.21100000000000002,6.196,5.592,62,13.86,48.44
37.16,0.193,0.306,6.193,5.587,62,13.86,48.44
37.23,-0.072,0.293,6.188,5.582,60,13.86,48.43
37.29,-0.088,0.163,6.184,5.577,60,13.86,48.44
37.35,-0.098,0.326,6.179,5.572,60,13.86,48.45
37.42,-0.121,0.199,6.175,5.567,60,13.86,48.47
37.48,-0.134,0.199,6.171,5.562,60,13.86,48.57
37.55,-0.141,0.24599999999999997,6.166,5.557,60,13.86,48.73
37.61,-0.117,0.293,6.161,5.552,60,13.86,48.92
37.68,-0.119,0.29,6.156,5.547,60,13.84,49.08
37.74,-0.162,0.378,6.154,5.542,60,13.84,49.22
37.81,0.257,0.326,6.149,5.537,60,13.84,49.4
37.87,-0.175,0.316,6.145,5.532,60,13.84,49.62
37.94,-0.05,0.192,6.141,5.529,60,13.84,49.82
38.0,0.175,0.241,6.136,5.525,63,13.84,50.0
38.06,0.216,0.332,6.134,5.52,63,13.84,50.18
38.13,0.008,0.381,6.129,5.515,63,13.84,50.35
38.19,-0.17,0.303,6.125,5.51,63,13.84,50.52
38.26,-0.175,0.119,6.121,5.507,63,13.83,50.68
38.32,-0.186,0.158,6.114,5.498,63,13.83,50.86
38.39,-0.201,0.388,6.113,5.497,63,13.83,50.87
38.45,-0.197,0.316,6.109,5.494,63,13.83,51.0
38.52,-0.146,0.163,6.105,5.49,63,13.83,51.18
38.58,-0.191,0.116,6.101,5.485,63,13.83,51.33
38.65,-0.204,0.267,6.098,5.48,63,13.84,51.44
38.71,0.177,0.298,6.094,5.478,63,13.86,51.53
38.77,-0.121,0.254,6.091,5.473,63,13.86,51.6
38.84,-0.045,0.2869807692307692,6.087,5.468,63,13.86,51.7
38.9,0.092,0.324,6.082,5.465,68,13.87,51.78
38.97,0.181,0.329,6.079,5.46,68,13.86,51.86
39.03,-0.12,0.311,6.074,5.458,68,13.86,51.9
39.1,-0.182,0.324,6.072,5.453,68,13.86,51.95
39.16,-0.181,0.254,6.068,5.449,68,13.86,51.96
39.23,-0.189,0.163,6.064,5.444,68,13.86,51.94
39.29,-0.19,0.23,6.061,5.44,68,13.86,51.91
39.35,-0.129,0.2875922131147541,6.057,5.437,68,13.86,51.91
39.42,-0.187,0.318,6.053,5.433,68,13.84,51.94
39.48,-0.203,0.158,6.049,5.429,68,13.84,51.93
39.55,0.201,0.29,6.046,5.425,68,13.84,51.87
39.61,-0.077,0.337,6.042,5.423,68,13.84,51.77
39.68,0.031,0.163,6.039,5.418,68,13.84,51.57
39.74,0.173,0.12819053472649047,6.037,5.413,71,13.84,51.31
39.81,0.275,0.116,6.032,5.41,71,13.84,51.1
39.87,-0.004,0.332,6.029,5.405,71,13.84,50.95
39.94,-0.068,0.225,6.026,5.402,71,13.83,50.83
40.0,-0.053,0.381,6.022,5.399,71,13.84,50.53
40.06,-0.049,0.344,6.019,5.397,71,13.83,50.11
40.13,-0.09,0.246,6.016,5.393,71,13.83,50.01
40.19,-0.037,0.274,6.012,5.391,71,13.83,49.76
40.26,-0.045,0.332,6.009,5.387,71,13.83,49.33
40.32,-0.09,0.298,6.005,5.385,71,13.83,48.85
40.39,0.326,0.274,6.002,5.381,71,13.83,48.47
40.45,-0.06,0.391,5.999,5.377,71,13.83,48.0
40.52,0.021,0.339,5.996,5.373,71,13.83,47.67
40.58,0.148,0.308,5.992,5.37,71,13.82,47.57
40.65,0.3,0.344,5.99,5.367,71,13.82,47.55
40.71,0.043,0.357,5.986,5.365,71,13.82,47.69
40.77,-0.077,0.269,5.984,5.363,70,13.82,47.82
40.84,-0.076,0.119,5.98,5.361,70,13.82,47.89
40.9,-0.08,0.412,5.977,5.358,70,13.82,47.77
40.97,-0.056,0.381,5.975,5.353,70,13.82,47.52
41.03,-0.031,0.332,5.971,5.351,70,13.82,47.59
41.1,-0.101,0.225,5.967,5.346,70,13.82,47.72
41.16,0.338,0.288,5.965,5.342,70,13.81,47.84
41.23,-0.115,0.3,5.962,5.338,70,13.81,47.87
41.29,0.023,0.256,5.96,5.335,70,13.81,47.84
41.35,0.136,0.249,5.957,5.333,70,13.81,47.93
41.42,0.315,0.166,5.955,5.332,70,13.81,48.03
41.48,0.115,0.329,5.951,5.332,70,13.81,48.02
41.55,-0.061,0.337,5.95,5.332,76,13.81,48.02
41.61,-0.056,0.36,5.946,5.335,76,13.81,48.08
41.68,-0.064,0.311,5.944,5.338,76,13.81,48.09
41.74,-0.089,0.199,5.941,5.343,76,13.81,48.2
41.81,-0.054,0.119,5.94,5.349,76,13.81,48.23
41.87,-0.079,0.277,5.937,5.357,76,13.81,48.25
41.94,-0.116,0.251,5.936,5.369,76,13.81,48.31
42.0,0.262,0.326,5.936,5.383,76,13.81,48.36
42.06,-0.083,0.381,5.936,5.402,76,13.81,48.29
42.13,0.001,0.199,5.937,5.422,76,13.81,48.17
42.19,0.127,0.373,5.94,5.446,76,13.81,47.9
42.26,0.289,0.119,5.942,5.475,76,13.81,47.53
42.32,0.002,0.161,5.947,5.506,76,13.81,47.31
42.39,-0.096,0.194,5.952,5.54,72,13.8,47.32
42.45,-0.083,0.119,5.961,5.577,72,13.81,47.32
42.52,-0.09,0.199,5.968,5.617,72,13.81,47.12
42.58,-0.032,0.386,5.981,5.664,72,13.81,46.92
42.65,-0.105,0.3736564885496183,5.993,5.714,72,13.8,46.64
42.71,-0.117,0.344,6.007,5.771,72,13.8,46.55
42.77,0.226,0.272,6.026,5.823,72,13.8,46.61
42.84,-0.031,0.119,6.043,5.875,72,13.8,46.55
42.9,0.044,0.228,6.063,5.932,72,13.8,46.57
42.97,0.202,0.116,6.084,5.99,72,13.8,46.81
43.03,0.259,0.249,6.106,6.046,72,13.8,47.35
43.1,-0.041,0.443,6.129,6.106,72,13.8,47.82
43.16,-0.082,0.37,6.154,6.162,79,13.8,47.93
43.23,-0.084,0.435,6.179,6.215,79,13.8,47.84
43.29,-0.042,0.116,6.203,6.268,79,13.8,47.73
43.35,-0.087,0.262,6.229,6.313,79,13.8,47.73
43.42,-0.132,0.368,6.256,6.361,79,13.8,47.76
43.48,0.23,0.274,6.283,6.408,79,13.8,47.79
43.55,-0.062,0.161,6.309,6.451,79,13.8,47.8
43.61,0.012,0.163,6.336,6.492,79,13.78,47.83
43.68,0.152,0.163,6.363,6.534,79,13.8,47.87
43.74,0.255,0.29,6.39,6.576,79,13.78,47.93
43.81,-0.043,0.357,6.415,6.603,79,13.78,47.99
43.87,-0.108,0.339,6.439,6.621,82,13.78,48.02
43.94,-0.107,0.295,6.461,6.634,82,13.78,48.01
44.0,-0.07,0.249,6.481,6.644,82,13.78,47.95
44.06,-0.111,0.344,6.501,6.651,82,13.78,47.92
44.13,-0.159,0.267,6.519,6.652,82,13.78,47.96
44.19,0.204,0.233,6.534,6.651,82,13.78,48.0
44.26,-0.104,0.202,6.549,6.644,82,13.78,48.03
44.32,-0.023,0.254,6.56,6.637,82,13.78,48.03
44.39,0.111,0.166,6.57,6.627,84,13.78,48.03
44.45,0.225,0.244,6.579,6.614,84,13.77,48.08
44.52,-0.063,0.414,6.584,6.601,84,13.77,48.1
44.58,-0.134,0.254,6.588,6.585,84,13.77,48.13
44.65,-0.133,0.163,6.59,6.568,84,13.77,48.15
44.71,-0.148,0.202,6.59,6.55,84,13.77,48.12
44.77,-0.155,0.197,6.589,6.528,84,13.77,48.12
44.84,-0.09,0.225,6.585,6.508,84,13.77,48.21
44.9,-0.155,0.225,6.581,6.489,84,13.77,48.34
44.97,-0.173,0.197,6.574,6.473,84,13.77,48.46
45.03,0.194,0.233,6.567,6.456,84,13.77,48.58
45.1,-0.093,0.29,6.56,6.439,84,13.77,48.7
45.16,-0.018,0.274,6.551,6.422,84,13.77,48.84
45.23,0.121,0.163,6.541,6.406,72,13.77,49.0
45.29,0.212,0.272,6.533,6.387,72,13.76,49.16
45.35,-0.074,0.407,6.523,6.369,72,13.77,49.28
45.42,-0.125,0.269,6.51,6.352,72,13.77,49.39
45.48,-0.121,0.228,6.5,6.334,72,13.77,49.47
45.55,-0.133,0.313,6.49,6.315,72,13.76,49.49
45.61,-0.137,0.255,6.479,6.297,72,13.77,49.58
45.68,-0.135,0.197,6.468,6.278,72,13.77,49.72
45.74,-0.085,0.255,6.455,6.263,72,13.77,49.9
45.81,-0.105,0.313,6.446,6.247,72,13.77,50.03
45.87,-0.134,0.192,6.433,6.233,72,13.77,50.11
45.94,0.269,0.303,6.423,6.218,72,13.77,50.22
46.0,-0.1,0.37,6.411,6.203,72,13.77,50.37
46.06,0.015,0.378,6.4,6.189,72,13.76,50.52
46.13,0.136,0.277,6.39,6.18,72,13.77,50.65
46.19,0.274,0.274,6.378,6.169,72,13.76,50.77
46.26,0.045,0.363,6.368,6.156,72,13.76,50.87
46.32,-0.065,0.3085,6.359,6.145,65,13.76,50.93
46.39,-0.065,0.254,6.349,6.132,65,13.77,50.97
46.45,-0.076,0.311,6.339,6.12,65,13.76,50.97
46.52,-0.078,0.3,6.329,6.109,65,13.76,50.97
46.58,-0.07,0.158,6.319,6.096,65,13.76,51.01
46.65,-0.011,0.194,6.309,6.085,65,13.76,51.03
46.71,-0.085,0.388,6.301,6.075,65,13.76,51.06
46.77,-0.01,0.285,6.291,6.064,65,13.76,50.99
46.84,0.23,0.313,6.284,6.053,65,13.76,50.91
46.9,0.01,0.23,6.276,6.043,65,13.76,50.86
46.97,0.097,0.228,6.268,6.034,65,13.75,50.86
47.03,0.247,0.163,6.259,6.025,65,13.76,50.85
47.1,0.248,0.246,6.253,6.015,65,13.76,50.81
47.16,-0.025,0.391,6.246,6.007,65,13.76,50.76
47.23,-0.042,0.355,6.238,5.998,68,13.76,50.68
47.29,-0.039,0.326,6.232,5.991,68,13.76,50.58
47.35,-0.047,0.274,6.224,5.982,68,13.76,50.43
47.42,-0.05,0.197,6.218,5.975,68,13.75,50.31
47.48,-0.052,0.277,6.211,5.966,68,13.75,50.21
47.55,-0.036,0.251,6.204,5.958,68,13.75,50.15
47.61,-0.007,0.251,6.198,5.951,68,13.75,50.06
47.68,-0.061,0.295,6.192,5.943,68,13.75,49.93
47.74,0.266,0.293,6.186,5.936,68,13.75,49.79
47.81,0.048,0.37,6.18,5.928,68,13.75,49.69
47.87,0.049,0.158,6.174,5.922,68,13.75,49.62
47.94,0.147,0.163,6.169,5.915,68,13.75,49.53
48.0,0.313,0.2481465517241379,6.164,5.908,68,13.75,49.44
48.06,0.224,0.329,6.157,5.901,68,13.75,49.34
48.13,-0.023,0.254,6.151,5.895,68,13.75,49.23
48.19,-0.032,0.391,6.146,5.889,62,13.75,49.12
48.26,-0.033,0.288,6.141,5.881,62,13.75,48.97
48.32,-0.044,0.228,6.136,5.875,62,13.75,48.78
48.39,-0.049,0.199,6.131,5.87,62,13.75,48.7
48.45,-0.047,0.254,6.128,5.863,62,13.75,48.64
48.52,-0.044,0.344,6.121,5.855,62,13.75,48.62
48.58,0.007,0.383,6.118,5.85,62,13.75,48.57
48.65,-0.03,0.316,6.114,5.843,62,13.75,48.5
48.71,-0.051,0.334,6.109,5.838,62,13.75,48.45
48.77,0.342,0.293,6.104,5.833,62,13.75,48.43
48.84,0.005,0.256,6.099,5.828,62,13.75,48.41
48.9,0.086,0.254,6.097,5.822,62,13.75,48.39
48.97,0.208,0.347,6.092,5.816,62,13.75,48.36
49.03,0.354,0.114,6.087,5.811,62,13.75,48.35
49.1,0.085,0.197,6.083,5.806,62,13.75,48.35
49.16,-0.043,0.163,6.079,5.801,59,13.75,48.31
49.23,-0.043,0.228,6.074,5.796,59,13.74,48.29
49.29,-0.052,0.274,6.072,5.791,59,13.74,48.2
49.35,-0.067,0.163,6.068,5.786,59,13.74,48.14
49.42,-0.073,0.114,6.064,5.781,59,13.74,48.14
49.48,-0.077,0.293,6.059,5.776,59,13.74,48.15
49.55,-0.076,0.163,6.056,5.771,59,13.74,48.18
49.61,-0.048,0.20113028169014086,6.052,5.766,59,13.75,48.17
49.68,-0.047,0.254,6.049,5.761,59,13.75,48.16
49.74,-0.089,0.277,6.044,5.756,59,13.75,48.18
49.81,0.339,0.313,6.042,5.751,59,13.74,48.21
49.87,-0.093,0.344,6.037,5.747,59,13.74,48.23
49.94,0.031,0.192,6.034,5.744,59,13.74,48.24
50.0,0.142,0.228,6.032,5.739,59,13.74,48.24
50.06,0.306,0.254,6.027,5.734,59,13.74,48.25
50.13,0.113,0.443,6.024,5.729,59,13.74,48.25
50.19,-0.078,0.479,6.019,5.725,57,13.74,48.25
50.26,-0.079,0.332,6.017,5.721,57,13.74,48.24
50.32,-0.087,0.274,6.013,5.716,57,13.74,48.17
50.39,-0.103,0.116,6.01,5.711,57,13.74,48.12
50.45,-0.11,0.199,6.007,5.706,57,13.74,48.13
50.52,-0.111,0.223,6.004,5.701,57,13.74,48.14
50.58,-0.111,0.119,6.0,5.699,57,13.74,48.17
50.65,-0.085,0.1911111111111111,5.997,5.694,57,13.74,48.18
50.71,-0.074,0.295,5.994,5.69,57,13.74,48.16
50.77,-0.119,0.347,5.991,5.686,57,13.74,48.19
50.84,0.306,0.192,5.987,5.681,57,13.72,48.21
50.9,-0.13,0.316,5.985,5.676,57,13.72,48.25
50.97,-0.002,0.311,5.981,5.674,57,13.72,48.31
51.03,0.106,0.401,5.977,5.669,57,13.72,48.39
51.1,0.276,0.114,5.976,5.664,57,13.72,48.5
51.16,0.097,0.274,5.972,5.661,57,13.72,48.59
51.23,-0.104,0.347,5.97,5.657,58,13.72,48.67
51.29,-0.105,0.23299999999999998,5.966,5.653,58,13.72,48.77
51.35,-0.109,0.119,5.964,5.649,58,13.72,48.81
51.42,-0.119,0.119,5.961,5.644,58,13.72,48.85
51.48,-0.121,0.197,5.957,5.642,58,13.72,48.98
51.55,-0.12,0.197,5.955,5.637,58,13.72,49.12
51.61,-0.112,0.228,5.951,5.633,58,13.72,49.3
51.68,-0.063,0.293,5.949,5.631,58,13.72,49.4
51.74,-0.12,0.29,5.946,5.627,58,13.72,49.47
51.81,-0.004,0.311,5.942,5.622,58,13.72,49.56
51.87,0.145,0.357,5.941,5.619,58,13.72,49.69
51.94,-0.022,0.254,5.937,5.616,58,13.72,49.83
52.0,0.066,0.116,5.935,5.612,58,13.72,49.95
52.06,0.227,0.166,5.932,5.608,58,13.72,50.09
52.13,0.235,0.368,5.929,5.604,58,13.72,50.2
52.19,-0.058,0.357,5.926,5.601,58,13.72,50.31
52.26,-0.082,0.394,5.924,5.598,60,13.72,50.39
52.32,-0.074,0.329,5.921,5.594,60,13.72,50.47
52.39,-0.082,0.293,5.919,5.592,60,13.72,50.5
52.45,-0.083,0.313,5.917,5.588,60,13.72,50.56
52.52,-0.079,0.197,5.913,5.584,60,13.72,50.66
52.58,-0.031,0.254,5.91,5.579,60,13.72,50.78
52.65,-0.065,0.272,5.907,5.576,60,13.72,50.86
52.71,-0.089,0.342,5.904,5.572,60,13.72,50.87
52.77,0.309,0.274,5.902,5.569,60,13.72,50.9
52.84,-0.009,0.161,5.899,5.566,60,13.72,50.94
52.9,0.069,0.16736363636363638,5.897,5.562,60,13.72,51.01
52.97,0.206,0.1857272727272727,5.893,5.56,60,13.72,51.05
53.03,0.328,0.215,5.89,5.556,60,13.72,51.12
53.1,0.027,0.313,5.888,5.552,60,13.72,51.15
53.16,-0.055,0.401,5.885,5.55,64,13.72,51.18
53.23,-0.051,0.342,5.883,5.545,64,13.72,51.19
53.29,-0.059,0.246,5.879,5.542,64,13.71,51.15
53.35,-0.066,0.282,5.878,5.539,64,13.72,51.11
53.42,-0.065,0.29,5.874,5.535,64,13.71,51.09
53.48,-0.024,0.116,5.872,5.531,64,13.71,51.09
53.55,-0.052,0.228,5.869,5.529,64,13.71,51.09
53.61,-0.079,0.274,5.865,5.526,64,13.71,51.05
53.68,0.341,0.262,5.863,5.522,64,13.72,50.98
53.74,-0.029,0.36,5.86,5.519,64,13.71,50.96
53.81,0.066,0.251,5.858,5.515,64,13.71,50.95
53.87,0.193,0.225,5.854,5.512,64,13.71,50.95
53.94,0.338,0.194,5.852,5.51,64,13.71,50.95
54.0,0.052,0.344,5.849,5.505,64,13.71,50.92
54.06,-0.061,0.399,5.847,5.502,66,13.71,50.88
54.13,-0.056,0.36,5.843,5.5,66,13.71,50.83
54.19,-0.065,0.36,5.84,5.496,66,13.71,50.72
54.26,-0.075,0.277,5.838,5.492,66,13.71,50.6
54.32,-0.08,0.386,5.835,5.49,66,13.71,50.54
54.39,-0.079,0.163,5.832,5.486,66,13.71,50.48
54.45,-0.029,0.22,5.83,5.482,66,13.71,50.46
54.52,-0.087,0.35,5.827,5.48,66,13.71,50.38
54.58,-0.069,0.163,5.825,5.477,66,13.71,50.27
54.65,0.29,0.293,5.821,5.474,66,13.71,50.19
54.71,-0.004,0.199,5.82,5.472,66,13.71,50.15
54.77,0.071,0.274,5.817,5.468,66,13.71,50.1
54.84,0.222,0.197,5.815,5.465,66,13.71,50.05
54.9,0.286,0.334,5.812,5.463,66,13.7,49.99
54.97,-0.042,0.288,5.81,5.46,66,13.71,49.89
55.03,-0.096,0.256,5.807,5.457,63,13.71,49.77
55.1,-0.09,0.298,5.805,5.454,63,13.71,49.64
55.16,-0.102,0.163,5.802,5.45,63,13.71,49.48
55.23,-0.113,0.254,5.801,5.448,63,13.71,49.36
55.29,-0.116,0.339,5.797,5.445,63,13.7,49.29
55.35,-0.117,0.329,5.796,5.442,63,13.7,49.22
55.42,-0.108,0.306,5.793,5.439,63,13.7,49.19
55.48,-0.066,0.254,5.792,5.437,63,13.7,49.1
55.55,-0.126,0.316,5.79,5.433,63,13.7,49.0
55.61,0.021,0.288,5.787,5.43,63,13.7,48.93
55.68,0.152,0.381,5.786,5.428,63,13.7,48.89
55.74,-0.024,0.357,5.783,5.425,63,13.7,48.84
55.81,0.061,0.114,5.781,5.422,58,13.7,48.78
55.87,0.231,0.21000000000000002,5.778,5.42,58,13.7,48.72
55.94,0.233,0.306,5.777,5.417,58,13.7,48.68
56.0,-0.083,0.189,5.775,5.413,58,13.7,48.64
56.06,-0.109,0.274,5.772,5.41,58,13.7,48.58
56.13,-0.102,0.249,5.771,5.409,58,13.7,48.49
56.19,-0.11,0.202,5.768,5.405,58,13.7,48.35
56.26,-0.117,0.116,5.766,5.403,58,13.7,48.3
56.32,-0.117,0.228,5.763,5.4,58,13.7,48.28
56.39,-0.115,0.254,5.761,5.398,58,13.7,48.28
56.45,-0.112,0.293,5.758,5.394,58,13.7,48.28
56.52,-0.079,0.246,5.757,5.391,58,13.7,48.25
56.58,-0.076,0.199,5.755,5.388,58,13.7,48.24
56.65,-0.118,0.228,5.752,5.386,58,13.7,48.26
56.71,0.325,0.163,5.751,5.383,58,13.7,48.29
56.77,-0.122,0.425,5.748,5.381,58,13.7,48.3
56.84,0.008,0.282,5.746,5.378,58,13.7,48.3
56.9,0.112,0.274,5.745,5.375,58,13.7,48.3
56.97,0.296,0.33100000000000007,5.743,5.373,58,13.7,48.32
57.03,0.137,0.388,5.74,5.371,58,13.69,48.31
57.1,-0.092,0.378,5.739,5.367,55,13.7,48.3
57.16,-0.098,0.254,5.735,5.365,55,13.7,48.3
57.23,-0.098,0.223,5.734,5.362,55,13.7,48.24
57.29,-0.108,0.145,5.731,5.36,55,13.7,48.17
57.35,-0.114,0.347,5.73,5.357,55,13.69,48.17
57.42,-0.113,0.29,5.726,5.353,55,13.69,48.19
57.48,-0.109,0.163,5.725,5.352,55,13.7,48.26
57.55,-0.105,0.228,5.723,5.35,55,13.69,48.35
57.61,-0.055,0.199,5.72,5.346,55,13.7,48.42
57.68,-0.104,0.116,5.719,5.343,55,13.7,48.52
57.74,-0.112,0.22,5.716,5.341,55,13.7,48.66
57.81,0.262,0.272,5.714,5.338,55,13.7,48.81
57.87,-0.029,0.311,5.711,5.336,55,13.7,48.95
57.94,0.038,0.274,5.71,5.333,55,13.69,49.08
58.0,0.18,0.197,5.708,5.331,55,13.7,49.21
58.06,0.302,0.254,5.705,5.328,55,13.7,49.35
58.13,-0.022,0.329,5.704,5.326,55,13.69,49.47
58.19,-0.106,0.249,5.701,5.323,55,13.69,49.57
58.26,-0.097,0.316,5.7,5.321,55,13.69,49.67
58.32,-0.1,0.119,5.698,5.318,55,13.7,49.7
58.39,-0.106,0.114,5.695,5.315,55,13.69,49.77
58.45,-0.106,0.12657142857142856,5.694,5.312,55,13.69,49.88
58.52,-0.102,0.158,5.693,5.31,55,13.69,50.02
58.58,-0.095,0.246,5.69,5.307,55,13.69,50.16
58.65,-0.048,0.311251256281407,5.688,5.305,55,13.69,50.24
58.71,-0.102,0.344,5.685,5.303,55,13.69,50.29
58.77,0.029,0.303,5.684,5.3,55,13.69,50.36
58.84,0.166,0.373,5.681,5.298,55,13.69,50.46
58.9,-0.007,0.36,5.68,5.296,55,13.69,50.55
58.97,0.077,0.122,5.678,5.293,55,13.69,50.61
59.03,0.242,0.116,5.675,5.29,55,13.69,50.69
59.1,0.25,0.295,5.674,5.288,55,13.69,50.79
59.16,-0.065,0.373,5.671,5.286,55,13.69,50.85
59.23,-0.091,0.329,5.67,5.283,59,13.69,50.91
59.29,-0.089,0.199,5.668,5.281,59,13.69,50.95
59.35,-0.097,0.334,5.665,5.279,59,13.69,50.92
59.42,-0.102,0.199,5.664,5.275,59,13.69,50.91
59.48,-0.1,0.332,5.661,5.273,59,13.69,50.92
59.55,-0.096,0.272,5.66,5.27,59,13.69,50.93
59.61,-0.05,0.272,5.658,5.269,59,13.69,50.91
59.68,-0.108,0.119,5.657,5.266,59,13.69,50.85
59.74,-0.04,0.272,5.654,5.264,59,13.69,50.79
59.81,0.231,0.318,5.653,5.261,59,13.69,50.76
59.87,-0.016,0.313,5.651,5.259,59,13.69,50.75
59.94,0.062,0.26693750000000005,5.648,5.258,59,13.69,50.73
60.0,0.22,0.225,5.647,5.254,59,13.69,50.7
60.06,0.262,0.313,5.644,5.253,59,13.69,50.68
60.13,-0.064,0.407,5.643,5.25,59,13.69,50.61
60.19,-0.106,0.313,5.641,5.248,62,13.69,50.54
60.26,-0.098,0.274,5.638,5.245,62,13.67,50.44
60.32,-0.105,0.166,5.637,5.243,62,13.67,50.31
60.39,-0.113,0.116,5.636,5.24,62,13.67,50.2
60.45,-0.115,0.197,5.633,5.238,62,13.67,50.11
60.52,-0.115,0.199,5.632,5.235,62,13.67,50.07
60.58,-0.112,0.295,5.629,5.233,62,13.67,50.02
60.65,-0.061,0.272,5.628,5.23,62,13.67,49.94
60.71,-0.113,0.324,5.626,5.229,62,13.67,49.82
60.77,-0.113,0.407,5.624,5.226,62,13.67,49.76
60.84,0.279,0.288,5.623,5.224,62,13.69,49.71
60.9,-0.029,0.295,5.623,5.221,62,13.67,49.67
60.97,0.041,0.161,5.623,5.219,62,13.67,49.63
61.03,0.189,0.21331966707768188,5.621,5.218,62,13.67,49.58
61.1,0.302,0.311,5.621,5.215,62,13.67,49.52
61.16,-0.033,0.42,5.618,5.214,62,13.67,49.45
61.23,-0.111,0.274,5.617,5.212,57,13.67,49.38
61.29,-0.101,0.36,5.616,5.209,57,13.67,49.27
61.35,-0.105,0.225,5.613,5.208,57,13.67,49.11
61.42,-0.115,0.355,5.613,5.206,57,13.67,48.99
61.48,-0.114,0.197,5.611,5.203,57,13.67,48.92
61.55,-0.112,0.161,5.608,5.201,57,13.67,48.86
61.61,-0.11,0.168,5.608,5.199,57,13.67,48.84
61.68,-0.096,0.401,5.606,5.197,57,13.67,48.77
61.74,-0.055,0.334,5.603,5.194,57,13.67,48.69
61.81,-0.113,0.277,5.603,5.193,57,13.67,48.64
61.87,0.093,0.272,5.602,5.189,57,13.67,48.63
61.94,0.106,0.254,5.601,5.188,57,13.67,48.59
62.0,-0.009,0.35,5.598,5.186,57,13.67,48.57
62.06,0.078,0.161,5.598,5.183,57,13.67,48.54
62.13,0.255,0.277,5.596,5.182,57,13.67,48.52
62.19,0.248,0.329,5.593,5.179,57,13.67,48.49
62.26,-0.072,0.313,5.592,5.178,57,13.67,48.48
62.32,-0.102,0.244,5.591,5.176,55,13.67,48.45
62.39,-0.096,0.381,5.588,5.173,55,13.67,48.39
62.45,-0.107,0.225,5.588,5.171,55,13.67,48.3
62.52,-0.114,0.363,5.586,5.168,55,13.67,48.26
62.58,-0.117,0.295,5.584,5.166,55,13.67,48.26
62.65,-0.118,0.357,5.582,5.163,55,13.67,48.26
62.71,-0.112,0.277,5.581,5.162,55,13.67,48.3
62.77,-0.058,0.111,5.578,5.159,55,13.67,48.28
62.84,-0.113,0.21600000000000003,5.578,5.158,55,13.67,48.26
62.9,-0.103,0.321,5.576,5.156,55,13.67,48.29
62.97,0.254,0.306,5.573,5.153,55,13.67,48.31
63.03,-0.027,0.163,5.571,5.151,55,13.67,48.33
63.1,0.045,0.161,5.568,5.149,55,13.67,48.33
63.16,0.2,0.114,5.567,5.147,55,13.67,48.34
63.23,0.308,0.23,5.566,5.144,55,13.67,48.35
63.29,-0.033,0.373,5.564,5.143,55,13.67,48.35
63.35,-0.102,0.306,5.562,5.141,57,13.67,48.33
63.42,-0.094,0.295,5.561,5.138,57,13.67,48.32
63.48,-0.1,0.228,5.559,5.136,57,13.67,48.24
63.55,-0.109,0.2010880215458276,5.556,5.133,57,13.67,48.25
63.61,-0.108,0.18060601915184682,5.555,5.132,57,13.67,48.33
63.68,-0.106,0.16757100718194257,5.552,5.129,57,13.67,48.43
63.74,-0.101,0.163,5.551,5.127,57,13.67,48.52
63.81,-0.051,0.251,5.549,5.126,57,13.67,48.56
63.87,-0.106,0.23,5.547,5.124,57,13.67,48.63
63.94,-0.084,0.238,5.546,5.121,57,13.67,48.73
64.0,0.238,0.313,5.544,5.12,57,13.67,48.86
64.06,-0.027,0.199,5.541,5.117,57,13.67,49.0
64.13,0.046,0.22250000000000003,5.54,5.116,57,13.67,49.12
64.19,0.202,0.246,5.539,5.114,57,13.67,49.24
64.26,0.293,0.158,5.536,5.111,57,13.67,49.37
64.32,-0.043,0.347,5.535,5.11,57,13.67,49.46
64.39,-0.103,0.386,5.532,5.107,58,13.67,49.55
64.45,-0.093,0.388,5.531,5.105,58,13.67,49.64
64.52,-0.098,0.295,5.529,5.104,58,13.67,49.67
64.58,-0.105,0.254,5.529,5.101,58,13.67,49.75
64.65,-0.105,0.386,5.526,5.099,58,13.67,49.84
64.71,-0.092,0.194,5.525,5.096,58,13.67,49.98
64.77,-0.05,0.116,5.524,5.095,58,13.67,50.11
64.84,-0.108,0.225,5.521,5.092,58,13.67,50.19
64.9,0.112,0.228,5.52,5.091,58,13.67,50.26
64.97,0.081,0.383,5.519,5.089,58,13.67,50.34
65.03,-0.007,0.254,5.516,5.086,58,13.67,50.44
65.1,0.086,0.116,5.515,5.085,58,13.67,50.55
65.16,0.264,0.119,5.512,5.082,58,13.67,50.66
65.23,0.235,0.386,5.511,5.08,58,13.67,50.76
65.29,-0.069,0.329,5.51,5.079,58,13.67,50.85
65.35,-0.087,0.269,5.507,5.076,63,13.67,50.93
65.42,-0.084,0.254,5.506,5.075,63,13.67,50.97
65.48,-0.09,0.277,5.504,5.072,63,13.67,50.97
65.55,-0.093,0.251,5.502,5.071,63,13.67,50.99
65.61,-0.078,0.277,5.501,5.069,63,13.67,51.02
65.68,-0.039,0.295,5.499,5.066,63,13.67,51.03
65.74,-0.101,0.293,5.497,5.065,63,13.67,51.04
65.81,0.108,0.246,5.496,5.062,63,13.67,50.98
65.87,0.112,0.339,5.495,5.061,63,13.67,50.92
65.94,0.0,0.23,5.494,5.059,63,13.67,50.9
66.0,0.09,0.119,5.491,5.057,63,13.67,50.9
66.06,0.263,0.241,5.49,5.056,63,13.67,50.89
66.13,0.233,0.363,5.489,5.054,63,13.67,50.86
66.19,-0.068,0.363,5.487,5.051,63,13.67,50.8
66.26,-0.088,0.326,5.485,5.051,66,13.67,50.74
66.32,-0.085,0.324,5.484,5.049,66,13.67,50.64
66.39,-0.095,0.274,5.484,5.046,66,13.67,50.5
66.45,-0.1,0.293,5.481,5.045,66,13.67,50.38
66.52,-0.1,0.272,5.481,5.044,66,13.67,50.3
66.58,-0.048,0.161,5.479,5.041,66,13.67,50.25
66.65,-0.093,0.254,5.479,5.04,66,13.67,50.17
66.71,-0.116,0.313,5.477,5.039,66,13.67,50.04
66.77,0.301,0.23,5.475,5.037,66,13.66,49.91
66.84,-0.042,0.313,5.474,5.035,66,13.67,49.82
66.9,0.03,0.277,5.474,5.034,66,13.67,49.74
66.97,0.165,0.254,5.472,5.032,66,13.66,49.69
67.03,0.321,0.295,5.472,5.03,66,13.67,49.61
67.1,0.013,0.357,5.47,5.029,66,13.67,49.51
67.16,-0.107,0.36,5.469,5.027,64,13.67,49.39
67.23,-0.103,0.344,5.468,5.025,64,13.67,49.29
67.29,-0.106,0.295,5.467,5.024,64,13.67,49.12
67.35,-0.116,0.269,5.464,5.024,64,13.67,48.98
67.42,-0.119,0.365,5.464,5.023,64,13.67,48.9
67.48,-0.117,0.161,5.462,5.022,64,13.67,48.83
67.55,-0.111,0.194,5.462,5.022,64,13.67,48.8
67.61,-0.056,0.29,5.462,5.022,64,13.67,48.73
67.68,-0.106,0.388,5.462,5.022,64,13.67,48.63
67.74,-0.114,0.399,5.462,5.02,64,13.67,48.58
67.81,0.288,0.259,5.462,5.022,64,13.67,48.54
67.87,-0.02,0.197,5.463,5.02,64,13.67,48.52
67.94,0.043,0.163,5.464,5.02,64,13.67,48.48
68.0,0.184,0.13240828402366864,5.464,5.022,64,13.67,48.46
68.06,0.334,0.116,5.467,5.02,64,13.67,48.44
68.13,0.017,0.277,5.467,5.019,64,13.67,48.42
68.19,-0.087,0.163,5.469,5.019,58,13.67,48.4
68.26,-0.081,0.251,5.469,5.019,58,13.67,48.36
68.32,-0.084,0.163,5.472,5.019,58,13.67,48.27
68.39,-0.096,0.228,5.473,5.019,58,13.67,48.21
68.45,-0.099,0.254,5.474,5.017,58,13.67,48.21
68.52,-0.097,0.29,5.474,5.017,58,13.67,48.21
68.58,-0.094,0.168,5.475,5.017,58,13.67,48.24
68.65,-0.084,0.274,5.477,5.014,58,13.67,48.24
68.71,-0.039,0.228,5.477,5.014,58,13.67,48.22
68.77,-0.098,0.228,5.478,5.012,58,13.67,48.25
68.84,-0.027,0.22,5.479,5.012,58,13.67,48.28
68.9,0.228,0.308,5.479,5.009,58,13.67,48.3
68.97,-0.009,0.376,5.479,5.008,58,13.67,48.31
69.03,0.068,0.326,5.479,5.007,58,13.67,48.31
69.1,0.226,0.26786019246408244,5.479,5.004,58,13.67,48.32
69.16,0.294,0.22,5.478,5.003,58,13.67,48.32
69.23,-0.041,0.197,5.477,5.0,58,13.67,48.32
69.29,-0.091,0.24599999999999997,5.477,4.999,55,13.67,48.32
69.35,-0.086,0.295,5.477,4.997,55,13.67,48.32
69.42,-0.094,0.161,5.474,4.994,55,13.67,48.29
69.48,-0.103,0.311,5.474,4.993,55,13.67,48.35
69.55,-0.103,0.197,5.472,4.99,55,13.67,48.45
69.61,-0.101,0.199,5.47,4.988,55,13.67,48.57
69.68,-0.099,0.23,5.469,4.985,55,13.67,48.71
69.74,-0.052,0.254,5.467,4.983,55,13.67,48.79
69.81,-0.081,0.274,5.464,4.982,55,13.67,48.91
69.87,-0.101,0.249,5.463,4.979,55,13.67,49.06
69.94,0.314,0.355,5.462,4.978,55,13.67,49.23
70.0,-0.064,0.35,5.459,4.975,55,13.67,49.38
70.06,0.039,0.316,5.458,4.973,55,13.67,49.52
70.13,0.16,0.37,5.454,4.972,55,13.67,49.65
70.19,0.344,0.274,5.454,4.969,55,13.67,49.77
70.26,0.107,0.383,5.45,4.967,55,13.67,49.87
70.32,-0.063,0.332,5.449,4.964,56,13.67,49.97
70.39,-0.059,0.316,5.448,4.963,56,13.67,50.05
70.45,-0.059,0.23,5.445,4.96,56,13.67,50.1
70.52,-0.066,0.295,5.443,4.959,56,13.67,50.15
70.58,-0.064,0.313,5.44,4.957,56,13.67,50.26
70.65,-0.064,0.277,5.438,4.954,56,13.67,50.37
70.71,-0.031,0.202,5.435,4.953,56,13.67,50.5
70.77,-0.033,0.272,5.433,4.951,56,13.67,50.57
70.84,-0.071,0.29,5.432,4.95,56,13.67,50.58
70.9,-0.07330407523510972,0.272,5.429,4.947,56,13.67,50.62
70.97,-0.074,0.329,5.427,4.946,56,13.67,50.72
71.03,0.054,0.197,5.424,4.945,56,13.67,50.83
71.1,0.165,0.256,5.423,4.942,56,13.67,50.91
71.16,0.348,0.3011169950738916,5.42,4.941,56,13.67,50.98
71.23,0.164,0.324,5.419,4.938,56,13.67,51.01
71.29,-0.044,0.277,5.417,4.937,61,13.67,51.03
71.35,-0.045,0.197,5.414,4.935,61,13.67,51.04
71.42,-0.049,0.295,5.413,4.932,61,13.67,50.99
71.48,-0.059,0.199,5.41,4.931,61,13.67,50.91
71.55,-0.061,0.116,5.408,4.93,61,13.67,50.86
71.61,-0.062,0.274,5.407,4.927,61,13.67,50.84
71.68,-0.019,0.35,5.404,4.926,61,13.67,50.82
71.74,-0.056,0.254,5.402,4.923,61,13.67,50.8
71.81,-0.08,0.285,5.4,4.922,61,13.67,50.68
71.87,0.338,0.246,5.398,4.921,61,13.67,50.6
71.94,-0.027,0.386,5.397,4.92,61,13.67,50.57
72.0,0.058,0.313,5.394,4.917,61,13.67,50.53
72.06,0.18,0.199,5.392,4.915,61,13.66,50.5
72.13,0.342,0.303,5.391,4.913,61,13.66,50.46
72.19,0.059,0.339,5.39,4.912,61,13.66,50.4
72.26,-0.08,0.116,5.387,4.91,63,13.67,50.33
72.32,-0.077,0.163,5.385,4.908,63,13.66,50.24
72.39,-0.081,0.197,5.383,4.907,63,13.67,50.08
72.45,-0.094,0.311,5.382,4.905,63,13.67,49.95
72.52,-0.099,0.329,5.38,4.903,63,13.66,49.83
72.58,-0.099,0.308,5.377,4.901,63,13.67,49.73
72.65,-0.073,0.225,5.377,4.9,63,13.67,49.67
72.71,-0.071,0.277,5.375,4.898,63,13.67,49.56
72.77,-0.117,0.293,5.373,4.896,63,13.66,49.44
72.84,0.348,0.264,5.372,4.895,63,13.67,49.35
72.9,-0.127,0.344,5.37,4.893,63,13.67,49.3
72.97,0.0,0.3291686967113276,5.367,4.891,63,13.66,49.25
73.03,0.107,0.295,5.367,4.89,63,13.67,49.21
73.1,0.291,0.223,5.365,4.888,63,13.67,49.14
73.16,0.128,0.396,5.362,4.887,63,13.66,49.07
73.23,-0.104,0.29,5.362,4.885,60,13.66,48.98
73.29,-0.107,0.197,5.36,4.883,60,13.66,48.91
73.35,-0.103,0.277,5.357,4.882,60,13.67,48.76
73.42,-0.113,0.332,5.357,4.88,60,13.67,48.61
73.48,-0.116,0.303,5.355,4.878,60,13.67,48.54
73.55,-0.113,0.197,5.352,4.875,60,13.67,48.48
73.61,-0.11,0.19217825480401424,5.351,4.875,60,13.67,48.48
73.68,-0.096,0.1897002385131182,5.35,4.872,60,13.67,48.46
73.74,-0.051,0.189,5.348,4.871,60,13.67,48.41
73.81,-0.109,0.256,5.347,4.87,60,13.67,48.4
73.87,0.056,0.272,5.345,4.867,60,13.67,48.41
73.94,0.14,0.329,5.343,4.867,60,13.67,48.41
74.0,-0.007,0.274,5.342,4.865,60,13.67,48.42
74.06,0.077,0.326,5.34,4.863,60,13.67,48.41
74.13,0.242,0.254,5.34,4.862,60,13.67,48.42
74.19,0.268,0.249,5.337,4.86,60,13.67,48.42
74.26,-0.058,0.386,5.336,4.86,60,13.67,48.41
74.32,-0.092,0.163,5.335,4.858,56,13.67,48.4
74.39,-0.084,0.197,5.332,4.856,56,13.67,48.36
74.45,-0.095,0.163,5.332,4.855,56,13.67,48.28
74.52,-0.102,0.251,5.33,4.853,56,13.67,48.26
74.58,-0.104,0.332,5.328,4.851,56,13.67,48.26
74.65,-0.103,0.163,5.327,4.85,56,13.67,48.28
74.71,-0.1,0.225,5.325,4.848,56,13.67,48.33
74.77,-0.053,0.199,5.323,4.848,56,13.67,48.35
74.84,-0.078,0.344,5.322,4.845,56,13.66,48.4
74.9,-0.101,0.168,5.32,4.844,56,13.66,48.51
74.97,0.306,0.223,5.32,4.843,56,13.67,48.65
75.03,-0.055,0.35,5.317,4.841,56,13.67,48.79
75.1,0.041,0.329,5.315,4.839,56,13.66,48.91
75.16,0.161,0.21332723250201124,5.315,4.838,56,13.67,49.05
75.23,0.339,0.114,5.312,4.835,56,13.67,49.17
75.29,0.101,0.37,5.311,4.834,56,13.67,49.28
75.35,-0.065,0.383,5.31,4.833,56,13.67,49.4
75.42,-0.057,0.326,5.308,4.831,56,13.66,49.53
75.48,-0.057,0.251,5.307,4.83,56,13.67,49.57
75.55,-0.064,0.256,5.305,4.828,56,13.66,49.64
75.61,-0.065,0.199,5.304,4.825,56,13.66,49.76
75.68,-0.064,0.161,5.303,4.825,56,13.66,49.9
75.74,-0.046,0.344,5.3,4.823,56,13.67,50.05
75.81,-0.028,0.316,5.3,4.821,56,13.66,50.16
75.87,-0.075,0.251,5.298,4.82,56,13.66,50.22
75.94,0.351,0.22,5.296,4.818,56,13.66,50.32
76.0,-0.078,0.329,5.295,4.816,56,13.67,50.45
76.06,0.04,0.199,5.293,4.815,56,13.66,50.59
76.13,0.141,0.116,5.29,4.813,56,13.66,50.68
76.19,0.322,0.163,5.29,4.813,56,13.67,50.77
76.26,0.204,0.37,5.288,4.81,56,13.66,50.85
76.32,-0.046,0.357,5.286,4.81,60,13.66,50.9
76.39,-0.053,0.274,5.285,4.808,60,13.66,50.95
76.45,-0.054,0.254,5.283,4.806,60,13.66,50.96
76.52,-0.066,0.311,5.281,4.805,60,13.66,50.94
76.58,-0.069,0.254,5.28,4.803,60,13.66,50.95
76.65,-0.067,0.277,5.279,4.8,60,13.66,50.95
76.71,-0.019,0.342,5.278,4.8,60,13.66,50.96
76.77,-0.075,0.316,5.275,4.798,60,13.66,50.97
76.84,-0.065,0.251,5.274,4.796,60,13.66,50.89
76.9,0.291,0.269,5.273,4.795,60,13.66,50.84
76.97,-0.001,0.28,5.27,4.793,60,13.67,50.82
77.03,0.069,0.228,5.27,4.791,60,13.7,50.82
77.1,0.214,0.329,5.268,4.79,60,13.7,50.81
77.16,0.309,0.337,5.266,4.79,60,13.7,50.79
77.23,-0.013,0.368,5.265,4.788,60,13.7,50.73
77.29,-0.078,0.161,5.264,4.786,64,13.71,50.66
77.35,-0.072,0.158,5.263,4.785,64,13.71,50.57
77.42,-0.083,0.344,5.26,4.783,64,13.7,50.43
77.48,-0.09,0.368,5.259,4.781,64,13.67,50.3
77.55,-0.092,0.199,5.258,4.78,64,13.66,50.22
77.61,-0.075,0.116,5.255,4.779,64,13.66,50.16
77.68,-0.047,0.228,5.255,4.776,64,13.66,50.12
77.74,-0.104,0.357,5.253,4.775,64,13.67,50.0
77.81,0.246,0.267,5.25,4.775,64,13.67,49.88
77.87,-0.014,0.388,5.249,4.773,64,13.67,49.79
77.94,0.0,0.277,5.248,4.772,64,13.66,49.74
78.0,0.097,0.189,5.245,4.771,64,13.67,49.67
78.06,0.276,0.2258333333333333,5.244,4.769,64,13.66,49.63
78.13,0.211,0.293,5.243,4.768,64,13.67,49.58
78.19,-0.078,0.363,5.24,4.766,63,13.66,49.5
78.26,-0.09,0.412,5.24,4.766,63,13.66,49.4
78.32,-0.086,0.36,5.238,4.763,63,13.66,49.27
78.39,-0.099,0.254,5.236,4.762,63,13.67,49.13
78.45,-0.106,0.228,5.235,4.761,63,13.67,49.06
78.52,-0.108,0.116,5.233,4.758,63,13.69,48.99
78.58,-0.108,0.293,5.233,4.758,63,13.69,48.94
78.65,-0.057,0.197,5.23,4.756,63,13.69,48.9
78.71,-0.101,0.293,5.229,4.754,63,13.69,48.82
78.77,-0.116,0.272,5.228,4.753,63,13.69,48.76
78.84,0.281,0.285,5.225,4.752,63,13.69,48.74
78.9,-0.037,0.394,5.224,4.751,63,13.7,48.71
78.97,0.028,0.199,5.223,4.749,63,13.71,48.69
79.03,0.157,0.13771221662468514,5.221,4.748,63,13.71,48.65
79.1,0.316,0.114,5.22,4.747,63,13.7,48.63
79.16,0.026,0.308,5.218,4.746,63,13.7,48.6
79.23,-0.104,0.228,5.218,4.744,60,13.69,48.57
79.29,-0.099,0.313,5.215,4.743,60,13.67,48.52
79.35,-0.103,0.23800000000000002,5.215,4.742,60,13.67,48.41
79.42,-0.114,0.163,5.213,4.741,60,13.67,48.34
79.48,-0.115,0.202,5.212,4.741,60,13.67,48.32
79.55,-0.115,0.163,5.211,4.741,60,13.67,48.32
79.61,-0.113,0.20607552258934592,5.208,4.738,60,13.66,48.34
79.68,-0.06,0.29,5.208,4.738,60,13.66,48.34
79.74,-0.105,0.396,5.208,4.738,60,13.66,48.33
79.81,-0.121,0.386,5.206,4.738,60,13.66,48.35
79.87,0.273,0.272,5.204,4.736,60,13.66,48.44
79.94,-0.037,0.37,5.203,4.736,60,13.66,48.57
80.0,0.03,0.228,5.203,4.734,60,13.66,48.69
80.06,0.16,0.119,5.202,4.733,60,13.66,48.82
80.13,0.322,0.241,5.201,4.733,60,13.66,48.97
80.19,0.03,0.363,5.201,4.733,60,13.66,49.09
80.26,-0.092,0.225,5.198,4.732,58,13.65,49.19
80.32,-0.084,0.116,5.198,4.731,58,13.65,49.32
80.39,-0.088,0.23,5.198,4.729,58,13.66,49.36
80.45,-0.098,0.311,5.196,4.728,58,13.66,49.45
80.52,-0.097,0.407,5.194,4.728,58,13.66,49.57
80.58,-0.095,0.223,5.193,4.726,58,13.65,49.71
80.65,-0.05,0.318,5.193,4.726,58,13.65,49.88
80.71,-0.077,0.272,5.192,4.724,58,13.65,49.97
80.77,-0.102,0.274,5.191,4.723,58,13.65,50.04
80.84,0.312,0.277,5.189,4.722,58,13.65,50.14
80.9,-0.07,0.199,5.188,4.721,58,13.65,50.28
80.97,0.032,0.329,5.187,4.719,58,13.65,50.39
81.03,0.15,0.223,5.186,4.717,58,13.65,50.51
81.1,0.328,0.23,5.184,4.716,58,13.65,50.62
81.16,0.085,0.37,5.183,4.714,58,13.65,50.69
81.23,-0.08,0.373,5.182,4.713,61,13.65,50.78
81.29,-0.079,0.293,5.181,4.711,61,13.65,50.88
81.35,-0.083,0.254,5.178,4.711,61,13.64,50.91
81.42,-0.094,0.166,5.178,4.708,61,13.65,50.92
81.48,-0.095,0.347,5.176,4.707,61,13.64,50.97
81.55,-0.083,0.311,5.174,4.704,61,13.64,51.01
81.61,-0.05,0.274,5.173,4.703,61,13.64,51.05
81.68,-0.111,0.272,5.171,4.702,61,13.64,51.02
81.74,0.115,0.246,5.171,4.701,61,13.64,50.96
81.81,0.077,0.225,5.168,4.698,61,13.64,50.93
81.87,-0.015,0.228,5.167,4.698,61,13.64,50.93
81.94,0.074,0.228,5.166,4.696,61,13.65,50.91
82.0,0.24,0.163,5.163,4.693,61,13.65,50.91
82.06,0.222,0.313,5.163,4.693,61,13.66,50.88
82.13,-0.078,0.197,5.161,4.691,64,13.67,50.83
82.19,-0.101,0.114,5.159,4.691,64,13.67,50.79
82.26,-0.099,0.225,5.158,4.688,64,13.67,50.7
82.32,-0.111,0.225,5.156,4.687,64,13.69,50.59
82.39,-0.116,0.376,5.154,4.686,64,13.7,50.49
82.45,-0.118,0.391,5.153,4.685,64,13.71,50.41
82.52,-0.112,0.277,5.151,4.684,64,13.71,50.35
82.58,-0.07,0.197,5.149,4.681,64,13.72,50.32
82.65,-0.133,0.197,5.148,4.681,64,13.72,50.22
82.71,-0.025,0.194,5.146,4.679,64,13.72,50.1
82.77,0.18,0.446,5.146,4.677,64,13.72,50.04
82.84,-0.048,0.342,5.143,4.676,64,13.72,49.99
82.9,0.033,0.267,5.141,4.674,64,13.7,49.93
82.97,0.188,0.218,5.141,4.674,61,13.7,49.85
83.03,0.235,0.324,5.138,4.671,61,13.71,49.76
83.1,-0.094,0.396,5.137,4.67,61,13.72,49.64
83.16,-0.137,0.311,5.136,4.669,61,13.72,49.55
83.23,-0.129,0.254,5.134,4.667,61,13.69,49.41
83.29,-0.142,0.277,5.133,4.666,61,13.66,49.22
83.35,-0.149,0.116,5.131,4.665,61,13.66,49.1
83.42,-0.151,0.116,5.131,4.662,61,13.66,49.02
83.48,-0.151,0.298,5.128,4.661,61,13.66,48.97
83.55,-0.151,0.228,5.127,4.661,61,13.66,48.94
83.61,-0.11,0.344,5.126,4.659,61,13.67,48.84
83.68,-0.129,0.466,5.125,4.657,61,13.67,48.75
83.74,-0.16,0.313,5.124,4.656,61,13.67,48.71
83.81,0.283,0.318,5.121,4.656,61,13.66,48.69
83.87,-0.138,0.316,5.12,4.654,61,13.67,48.65
83.94,-0.026,0.254,5.119,4.652,61,13.67,48.59
84.0,0.085,0.114,5.116,4.651,56,13.66,48.56
84.06,0.266,0.192,5.116,4.65,56,13.66,48.54
84.13,0.068,0.344,5.114,4.649,56,13.66,48.52
84.19,-0.139,0.277,5.112,4.647,56,13.65,48.48
84.26,-0.137,0.228,5.111,4.646,56,13.65,48.45
84.32,-0.138,0.277,5.109,4.645,56,13.64,48.36
84.39,-0.152,0.311,5.107,4.644,56,13.64,48.29
84.45,-0.155,0.163,5.106,4.641,56,13.63,48.27
84.52,-0.156,0.254,5.104,4.641,56,13.63,48.28
84.58,-0.155,0.321,5.102,4.639,56,13.63,48.31
84.65,-0.149,0.236,5.101,4.639,56,13.63,48.32
84.71,-0.097,0.163,5.101,4.636,56,13.63,48.3
84.77,-0.154,0.254,5.099,4.635,56,13.61,48.31
84.84,-0.115,0.249,5.099,4.634,56,13.6,48.34
84.9,0.198,0.342,5.096,4.632,56,13.6,48.35
84.97,-0.065,0.316,5.095,4.631,56,13.6,48.37
85.03,0.013,0.116,5.094,4.63,56,13.6,48.39
85.1,0.16,0.14085440835266824,5.092,4.629,55,13.6,48.41
85.16,0.258,0.197,5.091,4.627,55,13.6,48.43
85.23,-0.073,0.308,5.089,4.626,55,13.61,48.5
85.29,-0.137,0.269,5.087,4.624,55,13.61,48.6
85.35,-0.127,0.163,5.086,4.624,55,13.63,48.69
85.42,-0.133,0.228,5.085,4.622,55,13.61,48.75
85.48,-0.136,0.225,5.084,4.621,55,13.61,48.83
85.55,-0.133,0.192,5.081,4.619,55,13.6,48.99
85.61,-0.129,0.254,5.08,4.617,55,13.61,49.15
85.68,-0.107,0.295,5.079,4.616,55,13.6,49.32
85.74,-0.077,0.329,5.076,4.616,55,13.61,49.41
85.81,-0.127,0.166,5.076,4.614,55,13.6,49.52
85.87,0.252,0.246,5.074,4.614,55,13.61,49.66
85.94,-0.077,0.311,5.072,4.611,55,13.6,49.83
86.0,-0.008,0.298,5.071,4.61,55,13.6,49.97
86.06,0.09,0.166,5.07,4.609,55,13.6,50.09
86.13,0.27,0.189,5.069,4.609,55,13.6,50.21
86.19,0.211,0.381,5.066,4.606,55,13.6,50.32
86.26,-0.072,0.36,5.066,4.605,55,13.6,50.45
86.32,-0.087,0.272,5.064,4.604,59,13.6,50.59
86.39,-0.087,0.161,5.064,4.602,59,13.6,50.66
86.45,-0.095,0.272,5.061,4.601,59,13.6,50.72
86.52,-0.098,0.332,5.06,4.6,59,13.6,50.8
86.58,-0.093,0.347,5.059,4.599,59,13.6,50.89
86.65,-0.046,0.155,5.057,4.598,59,13.6,51.0
86.71,-0.11,0.23,5.056,4.597,59,13.6,51.05
86.77,-0.004,0.334,5.055,4.595,59,13.6,51.01
86.84,0.185,0.326,5.054,4.594,59,13.6,51.01
86.9,-0.018,0.357,5.051,4.592,59,13.6,51.04
86.97,0.063,0.313,5.051,4.592,59,13.6,51.07
87.03,0.219,0.163,5.049,4.59,59,13.6,51.1
87.1,0.263,0.161,5.049,4.589,59,13.6,51.13
87.16,-0.058,0.251,5.046,4.587,59,13.6,51.14
87.23,-0.098,0.274,5.045,4.587,65,13.6,51.14
87.29,-0.095,0.311,5.044,4.584,65,13.6,51.11
87.35,-0.106,0.23,5.042,4.584,65,13.6,51.05
87.42,-0.112,0.228,5.041,4.583,65,13.6,50.99
87.48,-0.107,0.277,5.04,4.582,65,13.6,50.97
87.55,-0.047,0.22,5.039,4.582,65,13.6,50.96
87.61,-0.116,0.313,5.037,4.579,65,13.6,50.95
87.68,-0.068,0.288,5.035,4.577,65,13.6,50.88
87.74,0.223,0.272,5.034,4.577,65,13.6,50.8
87.81,-0.044,0.199,5.033,4.574,65,13.6,50.75
87.87,0.033,0.21176263237809684,5.032,4.574,65,13.6,50.71
87.94,0.182,0.24474748697841586,5.03,4.573,65,13.6,50.66
88.0,0.245,0.29,5.029,4.572,65,13.6,50.61
88.06,-0.079,0.376,5.028,4.57,65,13.6,50.54
88.13,-0.132,0.347,5.025,4.569,65,13.6,50.45
88.19,-0.126,0.197,5.024,4.567,65,13.6,50.33
88.26,-0.138,0.344,5.024,4.567,65,13.6,50.15
88.32,-0.149,0.363,5.022,4.567,65,13.6,50.0
88.39,-0.136,0.311,5.019,4.564,65,13.59,49.88
88.45,-0.119,0.311,5.019,4.563,65,13.6,49.78
88.52,-0.098,0.332,5.018,4.562,65,13.6,49.69
88.58,-0.165,0.225,5.017,4.56,65,13.6,49.56
88.65,0.175,0.256,5.014,4.559,65,13.6,49.44
88.71,-0.069,0.363,5.013,4.557,65,13.6,49.28
88.77,-0.062,0.373,5.013,4.558,65,13.6,49.28
88.84,0.033,0.3413703703703703,5.012,4.555,63,13.6,49.21
88.9,0.212,0.2826296296296296,5.009,4.554,63,13.6,49.13
88.97,0.166,0.251,5.009,4.554,63,13.6,49.05
89.03,-0.123,0.347,5.008,4.552,63,13.6,48.96
89.1,-0.138,0.274,5.007,4.55,63,13.6,48.89
89.16,-0.131,0.347,5.004,4.549,63,13.6,48.78
89.23,-0.143,0.194,5.004,4.549,63,13.59,48.62
89.29,-0.148,0.264,5.002,4.547,63,13.59,48.56
89.35,-0.146,0.334,5.0,4.547,63,13.59,48.53
89.42,-0.145,0.254,4.999,4.544,63,13.6,48.51
89.48,-0.135,0.36,4.999,4.544,63,13.6,48.51
89.55,-0.083,0.274,4.997,4.542,63,13.6,48.47
89.61,-0.14,0.251,4.995,4.542,63,13.6,48.44
89.68,-0.03,0.303,4.994,4.539,63,13.6,48.46
89.74,0.162,0.339,4.993,4.539,63,13.59,48.47
89.81,-0.044,0.288,4.992,4.537,63,13.6,48.47
89.87,0.038,0.228,4.99,4.537,63,13.6,48.47
89.94,0.197,0.163,4.989,4.534,63,13.6,48.47
90.0,0.261,0.22,4.988,4.534,63,13.6,48.47
90.06,-0.064,0.308,4.987,4.532,63,13.6,48.46
90.13,-0.111,0.295,4.987,4.532,57,13.6,48.44
90.19,-0.105,0.277,4.984,4.53,57,13.59,48.4
90.26,-0.117,0.228,4.983,4.529,57,13.6,48.32
90.32,-0.126,0.228,4.982,4.528,57,13.59,48.31
90.39,-0.128,0.2615,4.98,4.527,57,13.6,48.31
90.45,-0.127,0.295,4.979,4.525,57,13.59,48.32
90.52,-0.123,0.293,4.977,4.524,57,13.59,48.35
90.58,-0.071,0.163,4.977,4.523,57,13.59,48.34
90.65,-0.112,0.228,4.975,4.522,57,13.6,48.33
90.71,-0.128,0.267,4.974,4.522,57,13.59,48.36
90.77,0.256,0.251,4.972,4.519,57,13.59,48.39
90.84,-0.046,0.166,4.972,4.519,57,13.59,48.4
90.9,0.019,0.114,4.969,4.517,57,13.59,48.42
90.97,0.149,0.313,4.968,4.515,57,13.59,48.48
91.03,0.306,0.313,4.967,4.514,57,13.59,48.57
91.1,0.029,0.373,4.965,4.513,57,13.59,48.67
91.16,-0.097,0.326,4.964,4.512,56,13.59,48.77
91.23,-0.088,0.28,4.962,4.512,56,13.59,48.87
91.29,-0.089,0.23,4.962,4.509,56,13.59,48.91
91.35,-0.095,0.163,4.962,4.509,56,13.59,48.99
91.42,-0.092,0.347,4.959,4.507,56,13.59,49.11
91.48,-0.084,0.378,4.957,4.507,56,13.59,49.26
91.55,-0.037,0.171,4.957,4.506,56,13.59,49.41
91.61,-0.05,0.313,4.955,4.505,56,13.6,49.5
91.68,-0.071,0.218,4.954,4.503,56,13.6,49.59
91.74,0.345,0.228,4.952,4.502,56,13.59,49.72
91.81,-0.03,0.272,4.952,4.501,56,13.6,49.87
91.87,0.08,0.161,4.951,4.5,56,13.6,50.03
91.94,0.2,0.288,4.95,4.497,56,13.6,50.17
92.0,0.18924049429657797,0.205,4.947,4.497,56,13.6,50.33
92.06,0.158,0.412,4.947,4.496,56,13.6,50.46
92.13,-0.013,0.29,4.946,4.495,56,13.6,50.57
92.19,-0.011,0.199,4.945,4.495,56,13.6,50.7
92.26,-0.016,0.238,4.942,4.492,56,13.6,50.76
92.32,-0.024,0.277,4.942,4.492,56,13.6,50.82
92.39,-0.018,0.272,4.94,4.49,61,13.6,50.89
92.45,0.033,0.197,4.94,4.49,61,13.6,50.99
92.52,-0.022,0.254,4.937,4.487,61,13.6,51.09
92.58,-0.037,0.269,4.937,4.487,61,13.6,51.15
92.65,0.345,0.293,4.935,4.486,61,13.6,51.16
92.71,0.045,0.308,4.933,4.485,61,13.6,51.2
92.77,0.123,0.116,4.932,4.482,61,13.6,51.27
92.84,0.268,0.256,4.931,4.482,61,13.6,51.35
92.9,0.19994211032713277,0.161,4.93,4.481,61,13.6,51.41
92.97,0.089,0.277,4.927,4.48,61,13.6,51.44
93.03,0.006,0.228,4.927,4.48,61,13.6,51.47
93.1,0.007,0.223,4.926,4.477,61,13.6,51.5
93.16,-0.003,0.228,4.923,4.477,61,13.6,51.47
93.23,-0.009,0.316,4.922,4.475,67,13.6,51.45
93.29,0.002,0.197,4.922,4.475,67,13.6,51.45
93.35,0.049,0.36,4.92,4.473,67,13.6,51.46
93.42,-0.022,0.114,4.92,4.472,67,13.6,51.47
93.48,0.206,0.288,4.917,4.472,67,13.6,51.41
93.55,0.169,0.254,4.917,4.47,67,13.6,51.35
93.61,0.07,0.228,4.915,4.47,67,13.6,51.34
93.68,0.161,0.251,4.915,4.468,67,13.6,51.34
93.74,0.326,0.29284302074330165,4.912,4.467,67,13.6,51.34
93.81,0.308,0.339,4.912,4.467,67,13.6,51.32
93.87,0.004,0.373,4.91,4.465,67,13.6,51.28
93.94,-0.018,0.298,4.91,4.463,68,13.6,51.24
94.0,-0.022,0.332,4.907,4.462,68,13.6,51.19
94.06,-0.034,0.22,4.907,4.462,68,13.6,51.06
94.13,-0.041,0.24067145421903052,4.905,4.46,68,13.6,50.98
94.19,-0.042,0.277,4.905,4.458,68,13.6,50.91
94.26,-0.035,0.311,4.902,4.457,68,13.6,50.88
94.32,0.005,0.407,4.901,4.457,68,13.6,50.84
94.39,-0.061,0.35,4.9,4.455,68,13.6,50.73
94.45,0.129,0.293,4.9,4.455,68,13.6,50.65
94.52,0.179,0.344,4.897,4.452,68,13.6,50.59
94.58,0.031,0.295,4.895,4.452,68,13.6,50.57
94.65,0.115,0.116,4.895,4.451,68,13.6,50.52
94.71,0.278,0.163,4.893,4.45,68,13.6,50.48
94.77,0.292,0.357,4.892,4.45,68,13.6,50.44
94.84,-0.027,0.435,4.89,4.447,68,13.6,50.38
94.9,-0.059,0.274,4.89,4.446,61,13.6,50.3
94.97,-0.055,0.249,4.888,4.445,61,13.6,50.18
95.03,-0.072,0.277,4.887,4.445,61,13.6,50.02
95.1,-0.082,0.277,4.885,4.443,61,13.6,49.91
95.16,-0.084,0.274,4.885,4.442,61,13.6,49.82
95.23,-0.086,0.277,4.882,4.442,61,13.6,49.77
95.29,-0.09,0.202,4.882,4.44,61,13.6,49.73
95.35,-0.077,0.228,4.88,4.44,61,13.6,49.64
95.42,-0.041,0.251,4.88,4.437,61,13.6,49.54
95.48,-0.099,0.313,4.877,4.437,61,13.6,49.5
95.55,0.024,0.274,4.877,4.435,61,13.6,49.47
95.61,0.209,0.36,4.875,4.435,61,13.6,49.44
95.68,-0.007,0.311,4.875,4.433,61,13.6,49.39
95.74,0.071,0.233,4.872,4.432,61,13.6,49.35
95.81,0.225,0.1546491085899514,4.871,4.431,61,13.6,49.3
95.87,0.28,0.111,4.87,4.43,61,13.6,49.25
95.94,-0.051,0.357,4.87,4.43,61,13.6,49.18
96.0,-0.102,0.409,4.868,4.427,54,13.6,49.11
96.06,-0.096,0.347,4.867,4.427,54,13.6,49.0
96.13,-0.11,0.251,4.865,4.427,54,13.6,48.85
96.19,-0.117,0.295,4.865,4.425,54,13.6,48.77
96.26,-0.119,0.23,4.862,4.425,54,13.6,48.72
96.32,-0.118,0.29,4.861,4.423,54,13.6,48.69
96.39,-0.115,0.36333098591549295,4.86,4.422,54,13.6,48.67
96.45,-0.111,0.407,4.86,4.42,54,13.6,48.61
96.52,-0.079,0.236,4.859,4.42,54,13.6,48.55
96.58,-0.07,0.313,4.858,4.418,54,13.6,48.54
96.65,-0.111,0.272,4.856,4.418,54,13.6,48.54
96.71,0.344,0.269,4.855,4.416,54,13.6,48.53
96.77,-0.115,0.316,4.854,4.415,54,13.6,48.52
96.84,0.01,0.251,4.853,4.415,54,13.6,48.51
96.9,0.113,0.194,4.851,4.413,54,13.6,48.51
96.97,0.292,0.27449999999999997,4.85,4.413,54,13.6,48.51
97.03,0.19,0.355,4.849,4.411,54,13.6,48.49
97.1,-0.074,0.29,4.848,4.41,52,13.6,48.48
97.16,-0.083,0.225,4.846,4.41,52,13.6,48.47
97.23,-0.082,0.166,4.845,4.409,52,13.6,48.4
97.29,-0.095,0.391,4.845,4.408,52,13.6,48.33
97.35,-0.101,0.163,4.843,4.406,52,13.6,48.32
97.42,-0.103,0.251,4.843,4.405,52,13.6,48.32
97.48,-0.102,0.311,4.84,4.404,52,13.6,48.34
97.55,-0.097,0.293,4.839,4.403,52,13.6,48.36
97.61,-0.083,0.295,4.838,4.403,52,13.6,48.35
97.68,-0.036,0.161,4.838,4.401,52,13.6,48.35
97.74,-0.091,0.119,4.835,4.4,52,13.6,48.39
97.81,0.086,0.324,4.834,4.4,52,13.6,48.46
97.87,0.143,0.321,4.833,4.398,52,13.6,48.55
97.94,0.008,0.251,4.831,4.398,52,13.6,48.66
98.0,0.097,0.199,4.83,4.396,52,13.6,48.77
98.06,0.26,0.199,4.829,4.395,52,13.6,48.9
98.13,0.306,0.288,4.828,4.394,52,13.6,49.01
98.19,-0.023,0.285,4.826,4.393,52,13.6,49.12
98.26,-0.061,0.116,4.825,4.393,53,13.6,49.24
98.32,-0.055,0.228,4.824,4.39,53,13.6,49.33
98.39,-0.065,0.272,4.823,4.39,53,13.6,49.38
98.45,-0.07,0.249,4.823,4.389,53,13.6,49.46
98.52,-0.071,0.376,4.82,4.388,53,13.6,49.6
98.58,-0.07,0.282,4.819,4.386,53,13.6,49.73
98.65,-0.066,0.163,4.818,4.385,53,13.6,49.86
98.71,-0.017,0.116,4.816,4.385,53,13.6,49.93
98.77,-0.068,0.308,4.815,4.384,53,13.6,50.0
98.84,-0.031,0.324,4.815,4.383,53,13.6,50.1
98.9,0.267,0.339,4.813,4.381,53,13.6,50.27
98.97,0.014,0.383,4.811,4.38,53,13.6,50.41
99.03,0.092,0.225,4.81,4.379,53,13.6,50.51
99.1,0.24,0.249,4.81,4.379,53,13.6,50.62
99.16,0.344,0.3269622322435175,4.808,4.378,53,13.6,50.72
99.23,0.014,0.388,4.808,4.378,53,13.6,50.8
99.29,-0.05,0.228,4.806,4.375,57,13.6,50.89
99.35,-0.048,0.35,4.805,4.375,57,13.6,50.95
99.42,-0.055,0.158,4.803,4.374,57,13.6,50.96
99.48,-0.061,0.401,4.803,4.373,57,13.6,50.98
99.55,-0.061,0.373,4.803,4.371,57,13.6,51.01
99.61,-0.057,0.36,4.8,4.37,57,13.6,51.06
99.68,-0.01,0.293,4.799,4.369,57,13.6,51.12
99.74,-0.052,0.272,4.798,4.368,57,13.6,51.09
99.81,-0.071,0.246,4.796,4.368,57,13.6,51.07
99.87,0.324,0.262,4.795,4.365,57,13.6,51.09
99.94,0.007,0.23,4.794,4.365,57,13.6,51.12
100.0,0.079,0.277,4.793,4.364,57,13.6,51.14
100.06,0.212,0.2695000000000001,4.793,4.363,57,13.6,51.17
100.13,0.15842196090409286,0.262,4.79,4.363,57,13.6,51.18
100.19,0.059,0.401,4.789,4.361,57,13.6,51.19
100.26,-0.05,0.35,4.788,4.36,61,13.6,51.19
100.32,-0.048,0.256,4.788,4.359,61,13.6,51.18
100.39,-0.058,0.161,4.786,4.358,61,13.6,51.11
100.45,-0.067,0.116,4.784,4.358,61,13.6,51.05
100.52,-0.07,0.199,4.783,4.356,61,13.6,51.01
100.58,-0.042,0.251,4.783,4.355,61,13.59,50.98
100.65,-0.043,0.256,4.78,4.355,61,13.59,50.99
100.71,-0.09,0.326,4.78,4.354,61,13.59,50.91
100.77,-0.09748239436619718,0.288,4.778,4.353,61,13.59,50.81
100.84,-0.1,0.368,4.778,4.35,61,13.59,50.75
100.9,0.025,0.254,4.776,4.35,61,13.59,50.73
100.97,0.131,0.166,4.775,4.349,61,13.59,50.69
101.03,0.31,0.197,4.773,4.348,61,13.59,50.66
101.1,0.134,0.373,4.773,4.348,61,13.59,50.6
101.16,-0.089,0.36,4.771,4.345,64,13.59,50.51
101.23,-0.091,0.116,4.771,4.345,64,13.59,50.42
101.29,-0.096,0.1598421052631579,4.768,4.344,64,13.59,50.28
101.35,-0.111,0.228,4.768,4.343,64,13.59,50.11
101.42,-0.116,0.272,4.767,4.343,64,13.6,49.99
101.48,-0.118,0.288,4.766,4.34,64,13.59,49.88
101.55,-0.102,0.326,4.766,4.34,64,13.59,49.8
101.61,-0.082,0.347,4.763,4.339,64,13.59,49.71
101.68,-0.137,0.256,4.763,4.338,64,13.59,49.54
101.74,0.265,0.267,4.761,4.336,64,13.58,49.42
101.81,-0.093,0.329,4.761,4.335,64,13.59,49.33
101.87,-0.029,0.116,4.758,4.335,64,13.59,49.24
101.94,0.064,0.12853390137781,4.758,4.335,61,13.59,49.14
102.0,0.243,0.163,4.757,4.333,61,13.6,49.06
102.06,0.181,0.306,4.756,4.333,61,13.6,48.98
102.13,-0.113,0.438,4.754,4.331,61,13.6,48.88
102.19,-0.125,0.347,4.753,4.331,61,13.6,48.78
102.26,-0.121,0.225,4.753,4.329,61,13.61,48.65
102.32,-0.135,0.223,4.752,4.328,61,13.61,48.51
102.39,-0.14,0.295,4.751,4.328,61,13.63,48.47
102.45,-0.14,0.288,4.748,4.326,61,13.63,48.44
102.52,-0.138,0.303,4.748,4.326,61,13.63,48.43
102.58,-0.127,0.344,4.748,4.326,61,13.63,48.44
102.65,-0.081,0.225,4.746,4.323,61,13.63,48.39
102.71,-0.139,0.2325642414860681,4.746,4.323,61,13.63,48.39
102.77,0.021,0.254,4.743,4.322,61,13.63,48.4
102.84,0.116,0.357,4.743,4.321,61,13.63,48.42
102.9,-0.038,0.363,4.741,4.319,61,13.63,48.43
102.97,0.046,0.326,4.741,4.318,57,13.61,48.43
103.03,0.206,0.116,4.741,4.318,57,13.63,48.43
103.1,0.254,0.274,4.738,4.317,57,13.63,48.43
103.16,-0.08,0.311,4.738,4.316,57,13.63,48.42
103.23,-0.119,0.293,4.736,4.316,57,13.64,48.42
103.29,-0.114,0.277,4.736,4.314,57,13.64,48.38
103.35,-0.126,0.197,4.736,4.313,57,13.64,48.31
103.42,-0.135,0.194,4.733,4.313,57,13.64,48.3
103.48,-0.136,0.228,4.733,4.311,57,13.64,48.29
103.55,-0.137,0.114,4.731,4.311,57,13.64,48.31
103.61,-0.134,0.272,4.731,4.309,57,13.64,48.35
103.68,-0.112,0.22,4.728,4.308,57,13.63,48.32
103.74,-0.088,0.228,4.728,4.308,57,13.63,48.33
103.81,-0.139,0.23611658747976821,4.727,4.306,57,13.63,48.35
103.87,0.224,0.251,4.726,4.306,57,13.63,48.38
103.94,-0.081,0.357,4.724,4.306,57,13.63,48.46
104.0,-0.027,0.293,4.723,4.303,57,13.63,48.57
104.06,0.066,0.199,4.721,4.303,57,13.63,48.7
104.13,0.24,0.22964117352056168,4.721,4.302,57,13.63,48.84
104.19,0.209,0.288,4.719,4.301,57,13.61,48.98
104.26,-0.093,0.357,4.718,4.301,55,13.61,49.11
104.32,-0.107,0.329,4.716,4.298,55,13.61,49.23
104.39,-0.105,0.329,4.716,4.298,55,13.61,49.3
104.45,-0.114,0.161,4.716,4.297,55,13.63,49.34
104.52,-0.117,0.3,4.713,4.296,55,13.63,49.44
104.58,-0.114,0.197,4.712,4.296,55,13.63,49.55
104.65,-0.108,0.256,4.711,4.293,55,13.63,49.69
104.71,-0.056,0.352,4.709,4.293,55,13.61,49.8
104.77,-0.103,0.166,4.708,4.293,55,13.61,49.86
104.84,-0.108,0.386,4.707,4.291,55,13.61,49.95
104.9,0.276,0.311,4.706,4.291,55,13.61,50.06
104.97,-0.021,0.274,4.706,4.289,55,13.61,50.21
105.03,0.049,0.171,4.704,4.288,55,13.61,50.33
105.1,0.184,0.116,4.702,4.288,55,13.61,50.45
105.16,0.329,0.262,4.701,4.287,55,13.63,50.59
105.23,0.011,0.399,4.701,4.286,55,13.63,50.69
105.29,-0.09,0.197,4.698,4.286,60,13.63,50.77
105.35,-0.087,0.228,4.698,4.283,60,13.63,50.85
105.42,-0.093,0.199,4.697,4.283,60,13.63,50.89
105.48,-0.099,0.277,4.696,4.283,60,13.63,50.91
105.55,-0.098,0.254,4.694,4.281,60,13.63,50.99
105.61,-0.08,0.272,4.693,4.281,60,13.63,51.06
105.68,-0.054,0.308,4.692,4.279,60,13.63,51.14
105.74,-0.108,0.311,4.691,4.278,60,13.63,51.13
105.81,0.205,0.251,4.691,4.278,60,13.63,51.13
105.87,-0.005,0.293,4.688,4.276,60,13.63,51.17
105.94,-0.007,0.313,4.688,4.276,60,13.63,51.23
106.0,0.082,0.274,4.686,4.274,60,13.63,51.29
106.06,0.256,0.26872982708933724,4.686,4.273,60,13.63,51.34
106.13,0.223,0.267,4.686,4.273,60,13.63,51.38
106.19,-0.079,0.272,4.684,4.272,63,13.63,51.39
106.26,-0.101,0.166,4.681,4.271,63,13.63,51.41
106.32,-0.105,0.254,4.681,4.271,63,13.63,51.39
106.39,-0.117,0.293,4.68,4.271,63,13.63,51.34
106.45,-0.119,0.251,4.679,4.268,63,13.63,51.31
106.52,-0.12,0.228,4.677,4.268,63,13.61,51.3
106.58,-0.07,0.114,4.676,4.267,63,13.63,51.29
106.65,-0.115,0.37,4.675,4.266,63,13.63,51.28
106.71,-0.139,0.29,4.674,4.264,63,13.63,51.2
106.77,0.279,0.244,4.672,4.263,63,13.63,51.13
106.84,-0.079,0.122,4.671,4.263,63,13.63,51.12
106.9,-0.002,0.111,4.671,4.262,63,13.63,51.11
106.97,0.121,0.228,4.669,4.261,64,13.63,51.08
107.03,0.285,0.267,4.667,4.261,64,13.63,51.05
107.1,0.006,0.355,4.666,4.258,64,13.63,51.01
107.16,-0.134,0.298,4.666,4.258,64,13.63,50.94
107.23,-0.13,0.277,4.665,4.258,64,13.63,50.86
107.29,-0.138,0.326,4.664,4.256,64,13.63,50.71
107.35,-0.149,0.316,4.662,4.256,64,13.63,50.59
107.42,-0.152,0.161,4.661,4.254,64,13.63,50.49
107.48,-0.154,0.197,4.66,4.253,64,13.63,50.42
107.55,-0.154,0.36,4.659,4.253,64,13.63,50.38
107.61,-0.108,0.116,4.659,4.253,64,13.63,50.3
107.68,-0.151,0.192,4.656,4.251,64,13.61,50.17
107.74,-0.171,0.29,4.655,4.251,64,13.61,50.09
107.81,0.251,0.267,4.654,4.249,64,13.61,50.02
107.87,-0.102,0.37,4.654,4.248,64,13.61,49.96
107.94,-0.034,0.388,4.651,4.248,64,13.61,49.89
108.0,0.081,0.272,4.651,4.246,58,13.61,49.8
108.06,0.252,0.30799999999999994,4.649,4.246,58,13.61,49.71
108.13,-0.013,0.344,4.649,4.246,58,13.61,49.61
108.19,-0.177,0.326,4.647,4.244,58,13.61,49.51
108.26,-0.173,0.318,4.646,4.244,58,13.61,49.4
108.32,-0.182,0.25273684210526315,4.644,4.244,58,13.61,49.22
108.39,-0.193,0.194,4.644,4.241,58,13.61,49.09
108.45,-0.197,0.326,4.642,4.241,58,13.61,49.01
108.52,-0.198,0.274,4.641,4.239,58,13.61,48.93
108.58,-0.199,0.197,4.641,4.239,58,13.61,48.91
108.65,-0.197,0.251,4.639,4.239,58,13.61,48.84
108.71,-0.175,0.166,4.639,4.237,58,13.61,48.74
108.77,-0.146,0.199,4.636,4.236,58,13.61,48.69
108.84,-0.197,0.228,4.635,4.236,58,13.61,48.64
108.9,0.151,0.249,4.634,4.234,58,13.61,48.63
108.97,-0.107,0.326,4.634,4.234,58,13.61,48.59
109.03,-0.088,0.316,4.632,4.234,58,13.61,48.57
109.1,0.0,0.277,4.631,4.231,53,13.61,48.54
109.16,0.169,0.114,4.629,4.231,53,13.61,48.52
109.23,0.155,0.303,4.629,4.231,53,13.63,48.51
109.29,-0.16,0.355,4.629,4.229,53,13.63,48.48
109.35,-0.185,0.43,4.626,4.229,53,13.63,48.46
109.42,-0.182,0.347,4.625,4.227,53,13.63,48.4
109.48,-0.195,0.161,4.624,4.226,53,13.63,48.31
109.55,-0.199,0.313,4.624,4.226,53,13.63,48.29
109.61,-0.199,0.272,4.622,4.226,53,13.63,48.3
109.68,-0.198,0.116,4.621,4.224,53,13.63,48.31
109.74,-0.195,0.116,4.619,4.224,53,13.63,48.32
109.81,-0.183,0.272,4.619,4.224,53,13.63,48.3
109.87,-0.134,0.197,4.617,4.221,53,13.63,48.31
109.94,-0.19,0.412,4.616,4.221,53,13.63,48.32
110.0,-0.034,0.225,4.615,4.22,53,13.63,48.35
110.06,0.07,0.339,4.614,4.219,53,13.63,48.37
110.13,-0.085,0.311,4.614,4.219,53,13.63,48.37
110.19,0.0,0.254,4.611,4.216,53,13.63,48.39
110.26,0.155,0.116,4.61,4.216,53,13.63,48.4
110.32,0.222,0.223,4.609,4.216,53,13.63,48.4
110.39,-0.11,0.373,4.607,4.214,53,13.63,48.4
110.45,-0.156,0.321,4.606,4.214,53,13.63,48.4
110.52,-0.144,0.225,4.606,4.214,53,13.63,48.39
110.58,-0.148,0.251,4.604,4.211,53,13.63,48.37
110.65,-0.146,0.163,4.604,4.211,53,13.63,48.44
110.71,-0.141,0.223,4.602,4.21,53,13.63,48.54
110.77,-0.134,0.293,4.601,4.209,53,13.63,48.66
110.84,-0.122,0.228,4.6,4.209,53,13.63,48.79
110.9,-0.06,0.311,4.599,4.209,53,13.63,48.88
110.97,-0.105,0.347,4.598,4.206,53,13.61,48.97
111.03,-0.083,0.267,4.597,4.206,53,13.61,49.11
111.1,0.254,0.23,4.597,4.205,53,13.61,49.26
111.16,-0.008,0.199,4.594,4.204,53,13.61,49.41
111.23,0.071,0.166,4.594,4.204,53,13.61,49.51
111.29,0.218,0.163,4.594,4.202,53,13.61,49.63
111.35,0.349,0.197,4.592,4.201,53,13.61,49.75
111.42,0.031,0.347,4.59,4.201,53,13.63,49.86
111.48,-0.055,0.394,4.589,4.2,57,13.63,49.97
111.55,-0.046,0.342,4.589,4.199,57,13.61,50.05
111.61,-0.049,0.391,4.589,4.199,57,13.61,50.09
111.68,-0.047,0.127,4.588,4.199,57,13.61,50.17
111.74,-0.044,0.163,4.587,4.196,57,13.61,50.3
111.81,-0.015,0.326,4.585,4.196,57,13.61,50.43
111.87,-0.001,0.163,4.584,4.196,57,13.61,50.57
111.94,-0.044,0.16963622754491017,4.582,4.194,57,13.61,50.63
112.0,-0.05427173913043478,0.189,4.582,4.194,57,13.61,50.64
112.06,-0.058,0.298,4.58,4.191,57,13.6,50.69
112.13,0.07,0.114,4.579,4.191,57,13.61,50.77
112.19,0.172,0.274,4.578,4.191,57,13.61,50.84
112.26,0.352,0.199,4.577,4.189,57,13.61,50.91
112.32,0.228,0.342,4.577,4.189,57,13.61,50.95
112.39,-0.016,0.285,4.574,4.189,57,13.61,50.96
112.45,-0.024,0.197,4.574,4.186,57,13.61,50.98
112.52,-0.027,0.293,4.573,4.186,57,13.61,50.96
112.58,-0.037,0.326,4.572,4.186,57,13.61,50.92
112.65,-0.038,0.298,4.57,4.184,64,13.61,50.9
112.71,-0.017,0.334,4.569,4.184,64,13.61,50.9
112.77,0.0,0.373,4.568,4.184,64,13.61,50.91
112.84,-0.061,0.378,4.567,4.181,64,13.61,50.88
112.9,-0.07144354838709678,0.272,4.567,4.181,64,13.61,50.8
112.97,-0.075,0.355,4.565,4.181,64,13.61,50.75
113.03,0.045,0.2965,4.564,4.18,64,13.61,50.73
113.1,0.142,0.238,4.564,4.179,64,13.61,50.71
113.16,0.317,0.238,4.562,4.179,64,13.61,50.7
113.23,0.209,0.332,4.562,4.177,64,13.61,50.65
113.29,-0.048,0.347,4.562,4.176,64,13.61,50.58
113.35,-0.055,0.295,4.559,4.176,65,13.61,50.51
113.42,-0.06,0.228,4.558,4.174,65,13.61,50.41
113.48,-0.073,0.22,4.557,4.174,65,13.61,50.25
113.55,-0.079,0.298,4.557,4.174,65,13.61,50.14
113.61,-0.08,0.342,4.555,4.171,65,13.63,50.03
113.68,-0.062,0.274,4.554,4.171,65,13.63,49.98
113.74,-0.04,0.251,4.552,4.171,65,13.63,49.9
113.81,-0.095,0.199,4.552,4.169,65,13.63,49.78
113.87,0.297,0.249,4.55,4.169,65,13.63,49.67
113.94,-0.043,0.396,4.549,4.169,65,13.63,49.61
114.0,0.011,0.308,4.548,4.167,65,13.63,49.56
114.06,0.104,0.228,4.547,4.166,65,13.63,49.52
114.13,0.279,0.197,4.547,4.166,65,13.63,49.47
114.19,0.232,0.308,4.544,4.165,65,13.63,49.39
114.26,-0.059,0.326,4.544,4.164,65,13.63,49.31
114.32,-0.072,0.254,4.543,4.164,62,13.63,49.21
114.39,-0.071,0.228,4.542,4.162,62,13.63,49.08
114.45,-0.085,0.199,4.542,4.161,62,13.63,48.91
114.52,-0.092,0.163,4.539,4.161,62,13.63,48.83
114.58,-0.096,0.22781657608695655,4.538,4.16,62,13.63,48.77
114.65,-0.097,0.308,4.537,4.159,62,13.63,48.74
114.71,-0.063,0.32731005198829666,4.537,4.159,62,13.63,48.7
114.77,-0.079,0.347,4.535,4.157,62,13.63,48.62
114.84,-0.113,0.409,4.535,4.156,62,13.63,48.56
114.9,0.328,0.313,4.534,4.156,62,13.63,48.54
114.97,-0.115,0.409,4.532,4.155,62,13.63,48.53
115.03,0.005,0.295,4.532,4.154,62,13.63,48.52
115.1,0.107,0.163,4.532,4.154,62,13.63,48.49
115.16,0.287,0.2781772497897393,4.529,4.154,62,13.63,48.48
115.23,0.134,0.396,4.528,4.152,62,13.63,48.48
115.29,-0.103,0.399,4.527,4.152,58,13.63,48.45
115.35,-0.105,0.228,4.527,4.152,58,13.63,48.43
115.42,-0.107,0.295,4.525,4.15,58,13.61,48.36
115.48,-0.119,0.26987500000000003,4.524,4.149,58,13.61,48.29
115.55,-0.123,0.228,4.523,4.149,58,13.63,48.27
115.61,-0.121,0.18612499999999998,4.522,4.148,58,13.63,48.27
115.68,-0.118,0.161,4.522,4.147,58,13.63,48.31
115.74,-0.101,0.223,4.519,4.147,58,13.63,48.31
115.81,-0.064,0.269,4.519,4.147,58,13.61,48.3
115.87,-0.119,0.342,4.518,4.144,58,13.63,48.3
115.94,0.115,0.288,4.517,4.144,58,13.63,48.33
116.0,0.06,0.435,4.517,4.143,58,13.63,48.35
116.06,-0.012,0.194,4.514,4.142,58,13.63,48.37
116.13,0.075,0.13675345125107852,4.514,4.142,58,13.63,48.37
116.19,0.241,0.116,4.513,4.14,58,13.63,48.39
116.26,0.269,0.409,4.512,4.139,58,13.63,48.39
116.32,-0.054,0.376,4.512,4.139,58,13.63,48.37
116.39,-0.084,0.228,4.51,4.139,57,13.63,48.37
116.45,-0.078,0.272,4.509,4.137,57,13.63,48.34
116.52,-0.087,0.225,4.507,4.137,57,13.61,48.29
116.58,-0.089,0.23,4.507,4.137,57,13.63,48.33
116.65,-0.083,0.228,4.506,4.137,57,13.63,48.43
116.71,-0.076,0.199,4.505,4.134,57,13.63,48.56
116.77,-0.032,0.199,4.503,4.134,57,13.63,48.71
116.84,-0.039,0.249,4.502,4.133,57,13.63,48.79
116.9,-0.066,0.298,4.502,4.132,57,13.61,48.92
116.97,0.354,0.277,4.501,4.132,57,13.63,49.07
117.03,-0.039,0.184,4.5,4.132,57,13.63,49.23
117.1,0.079,0.326,4.498,4.129,57,13.63,49.38
117.16,0.197,0.295,4.497,4.129,57,13.61,49.5
117.23,0.19933055265901983,0.166,4.497,4.129,57,13.63,49.62
117.29,0.2,0.363,4.495,4.128,57,13.63,49.74
117.35,-0.003,0.391,4.495,4.127,57,13.63,49.86
117.42,0.002,0.192,4.495,4.127,59,13.63,49.96
117.48,0.003,0.197,4.492,4.127,59,13.61,50.02
117.55,-0.004,0.163,4.492,4.124,59,13.61,50.06
117.61,-0.005,0.197,4.491,4.124,59,13.63,50.17
117.68,0.007,0.225,4.49,4.123,59,13.63,50.3
117.74,0.041,0.293,4.49,4.123,59,13.61,50.44
117.81,-0.013,0.311,4.488,4.122,59,13.61,50.53
117.87,0.285,0.308,4.487,4.122,59,13.61,50.56
117.94,0.093,0.293,4.487,4.122,59,13.61,50.62
118.0,0.084,0.163,4.485,4.119,59,13.61,50.72
118.06,0.171,0.23,4.485,4.119,59,13.61,50.82
118.13,0.34,0.116,4.483,4.118,59,13.61,50.89
118.19,0.315,0.318,4.482,4.117,59,13.61,50.98
118.26,0.012,0.407,4.482,4.117,59,13.61,51.03
118.32,-0.006,0.401,4.48,4.117,64,13.61,51.09
118.39,-0.009,0.342,4.48,4.114,64,13.63,51.1
118.45,-0.02,0.316,4.478,4.114,64,13.61,51.07
118.52,-0.024,0.194,4.477,4.114,64,13.63,51.03
118.58,-0.012,0.166,4.476,4.114,64,13.61,51.03
118.65,0.018,0.295,4.475,4.112,64,13.61,51.03
118.71,-0.041,0.313,4.475,4.112,64,13.61,51.02
118.77,0.211,0.337,4.472,4.11,64,13.61,50.97
118.84,0.121,0.225,4.472,4.109,64,13.6,50.91
118.9,0.052,0.163,4.47,4.109,64,13.6,50.91
118.97,0.138,0.324,4.47,4.107,64,13.6,50.91
119.03,0.303,0.155,4.47,4.107,64,13.6,50.91
119.1,0.297,0.326,4.468,4.107,64,13.6,50.9
119.16,-0.012,0.274,4.467,4.105,64,13.61,50.88
119.23,-0.04,0.254,4.466,4.107,66,13.61,50.82
119.29,-0.039,0.274,4.465,4.104,66,13.61,50.73
119.35,-0.054,0.225,4.465,4.104,66,13.63,50.59
119.42,-0.06,0.256,4.462,4.103,66,13.63,50.47
119.48,-0.065,0.23,4.462,4.102,66,13.63,50.38
119.55,-0.022,0.228,4.46,4.102,66,13.63,50.33
119.61,-0.064,0.329,4.46,4.102,66,13.61,50.27
119.68,-0.09,0.23,4.46,4.099,66,13.61,50.13
119.74,0.326,0.282,4.457,4.099,66,13.61,50.02
119.81,-0.04,0.318,4.456,4.099,66,13.63,49.95
119.87,0.04,0.223,4.455,4.099,66,13.63,49.88
119.94,0.159,0.326,4.455,4.097,66,13.61,49.79
120.0,0.334,0.308,4.452,4.097,66,13.61,49.71
120.06,0.081,0.29,4.452,4.097,66,13.61,49.6
120.13,-0.081,0.311,4.452,4.097,64,13.61,49.48
120.19,-0.074,0.23,4.45,4.094,64,13.61,49.36
120.26,-0.083,0.163,4.45,4.094,64,13.61,49.18
120.32,-0.095,0.272,4.448,4.093,64,13.61,49.01
120.39,-0.101,0.249,4.447,4.092,64,13.61,48.94
120.45,-0.102,0.199,4.447,4.092,64,13.61,48.86
120.52,-0.102,0.116,4.445,4.092,64,13.61,48.82
120.58,-0.058,0.29,4.445,4.09,64,13.61,48.76
120.65,-0.085,0.388,4.445,4.089,64,13.63,48.67
120.71,-0.111,0.313,4.442,4.089,64,13.63,48.6
120.77,0.332,0.249,4.441,4.088,64,13.63,48.58
120.84,-0.091,0.37,4.44,4.087,64,13.63,48.56
120.9,0.02,0.298,4.44,4.087,64,13.61,48.53
120.97,0.126,0.254,4.44,4.087,64,13.63,48.52
121.03,0.309,0.114,4.437,4.085,64,13.63,48.51
121.1,0.134,0.376,4.437,4.084,64,13.63,48.49
121.16,-0.089,0.391,4.435,4.084,57,13.63,48.47
121.23,-0.089,0.386,4.435,4.084,57,13.63,48.43
121.29,-0.092,0.277,4.435,4.082,57,13.63,48.34
121.35,-0.104,0.163,4.432,4.082,57,13.63,48.27
121.42,-0.105,0.116,4.432,4.082,57,13.63,48.27
121.48,-0.107,0.228,4.43,4.079,57,13.63,48.26
121.55,-0.106,0.194,4.43,4.079,57,13.63,48.3
121.61,-0.1,0.116,4.428,4.079,57,13.63,48.3
121.68,-0.045,0.158,4.427,4.079,57,13.63,48.28
121.74,-0.099,0.29,4.426,4.077,57,13.63,48.29
121.81,-0.099,0.308,4.425,4.077,57,13.63,48.32
121.87,0.273,0.311,4.425,4.077,57,13.61,48.35
121.94,-0.019,0.29,4.423,4.075,57,13.61,48.35
122.0,0.047,0.228,4.422,4.074,57,13.61,48.35
122.06,0.179,0.23,4.421,4.074,57,13.63,48.35
122.13,0.326,0.114,4.42,4.074,57,13.61,48.37
122.19,0.011,0.352,4.42,4.072,57,13.61,48.36
122.26,-0.095,0.238,4.418,4.072,55,13.61,48.36
122.32,-0.088,0.295,4.418,4.072,55,13.61,48.34
122.39,-0.099,0.275037037037037,4.418,4.072,55,13.61,48.27
122.45,-0.11,0.23796296296296296,4.415,4.069,55,13.63,48.24
122.52,-0.113,0.218,4.414,4.069,55,13.61,48.25
122.58,-0.114,0.404,4.413,4.069,55,13.61,48.28
122.65,-0.109,0.376,4.413,4.068,55,13.61,48.31
122.71,-0.076,0.116,4.411,4.067,55,13.63,48.32
122.77,-0.071,0.163,4.411,4.067,55,13.63,48.35
122.84,-0.108,0.148,4.41,4.067,55,13.61,48.45
122.9,0.328,0.293,4.408,4.065,55,13.61,48.55
122.97,-0.115,0.277,4.408,4.065,55,13.61,48.67
123.03,0.011,0.228,4.408,4.065,55,13.63,48.78
123.1,0.113,0.161,4.405,4.063,55,13.61,48.9
123.16,0.302,0.228,4.405,4.062,55,13.61,49.04
123.23,0.179,0.391,4.403,4.062,55,13.63,49.16
123.29,-0.075,0.35,4.403,4.062,56,13.61,49.27
123.35,-0.079,0.249,4.403,4.06,56,13.61,49.39
123.42,-0.077,0.166,4.4,4.06,56,13.61,49.45
123.48,-0.087,0.295,4.4,4.06,56,13.61,49.49
123.55,-0.087,0.295,4.398,4.06,56,13.61,49.58
123.61,-0.085,0.256,4.398,4.057,56,13.61,49.7
123.68,-0.069,0.27327651048088775,4.398,4.057,56,13.63,49.84
123.74,-0.03,0.311,4.396,4.057,56,13.61,49.94
123.81,-0.086,0.378,4.395,4.056,56,13.61,50.01
123.87,0.206,0.269,4.395,4.055,56,13.61,50.09
123.94,0.031,0.324,4.393,4.055,56,13.61,50.22
124.0,0.018,0.3,4.393,4.055,56,13.63,50.37
124.06,0.108,0.26110018158769316,4.393,4.052,56,13.63,50.5
124.13,0.282,0.21760564634940213,4.39,4.052,56,13.61,50.62
124.19,0.278,0.197,4.39,4.052,56,13.61,50.72
124.26,-0.039,0.254,4.388,4.05,56,13.63,50.8
124.32,-0.063,0.251,4.388,4.05,60,13.63,50.88
124.39,-0.068,0.329,4.386,4.05,60,13.63,50.93
124.45,-0.078,0.313,4.385,4.05,60,13.63,50.93
124.52,-0.083,0.254,4.385,4.048,60,13.63,50.96
124.58,-0.077,0.199,4.383,4.047,60,13.63,50.99
124.65,-0.028,0.161,4.383,4.047,60,13.63,51.03
124.71,-0.092,0.254,4.381,4.047,60,13.63,51.04
124.77,0.015,0.272,4.38,4.045,60,13.63,50.98
124.84,0.196,0.303,4.38,4.045,60,13.63,50.94
124.9,-0.008,0.313,4.379,4.045,60,13.63,50.94
124.97,0.073,0.228,4.378,4.043,60,13.63,50.95
125.03,0.234,0.228,4.378,4.042,60,13.61,50.96
125.1,0.298,0.267,4.378,4.042,60,13.63,50.96
125.16,-0.035,0.35,4.375,4.042,60,13.63,50.92
125.23,-0.08,0.163,4.374,4.04,65,13.63,50.89
125.29,-0.083,0.326,4.373,4.04,65,13.63,50.82
125.35,-0.098,0.329,4.373,4.04,65,13.63,50.71
125.42,-0.106,0.161,4.373,4.04,65,13.63,50.6
125.48,-0.108,0.19114417177914111,4.37,4.037,65,13.63,50.53
125.55,-0.065,0.223,4.37,4.037,65,13.63,50.47
125.61,-0.103,0.225,4.37,4.037,65,13.63,50.41
125.68,-0.131,0.262,4.368,4.036,65,13.63,50.28
125.74,0.284,0.233,4.37,4.035,65,13.63,50.12
125.81,-0.073,0.329,4.37,4.035,65,13.63,50.02
125.87,0.006,0.332,4.368,4.035,65,13.63,49.94
125.94,0.125,0.332,4.368,4.035,64,13.63,49.86
126.0,0.3,0.363,4.366,4.032,64,13.63,49.76
126.06,0.036,0.334,4.365,4.032,64,13.63,49.63
126.13,-0.125,0.35,4.364,4.032,64,13.63,49.49
126.19,-0.119,0.36,4.363,4.031,64,13.63,49.36
126.26,-0.132,0.378,4.363,4.03,64,13.63,49.17
126.32,-0.143,0.274,4.363,4.03,64,13.63,49.0
126.39,-0.148,0.254,4.36,4.03,64,13.63,48.9
126.45,-0.151,0.2807037037037037,4.36,4.027,64,13.63,48.83
126.52,-0.127,0.3302962962962963,4.358,4.027,64,13.64,48.8
126.58,-0.113,0.357,4.358,4.027,64,13.64,48.72
126.65,-0.163,0.295,4.358,4.027,64,13.64,48.64
126.71,0.277,0.288,4.358,4.025,64,13.63,48.58
126.77,-0.165,0.344,4.358,4.025,64,13.64,48.56
126.84,-0.05,0.254,4.356,4.025,64,13.63,48.53
126.9,0.045,0.228,4.355,4.025,60,13.64,48.51
126.97,0.222,0.116,4.354,4.023,60,13.64,48.49
127.03,0.148,0.293,4.353,4.022,60,13.64,48.48
127.1,-0.146,0.29,4.353,4.022,60,13.64,48.45
127.16,-0.156,0.225,4.351,4.021,60,13.64,48.43
127.23,-0.157,0.228,4.35,4.02,60,13.64,48.36
127.29,-0.168,0.228,4.35,4.02,60,13.64,48.28
127.35,-0.172,0.197,4.348,4.02,60,13.65,48.26
127.42,-0.173,0.116,4.348,4.018,60,13.65,48.26
127.48,-0.17,0.15722944849115505,4.348,4.017,60,13.65,48.3
127.55,-0.116,0.225,4.345,4.017,60,13.65,48.31
127.61,-0.164,0.277,4.345,4.017,60,13.65,48.29
127.68,-0.179,0.399,4.344,4.017,60,13.65,48.3
127.74,0.21,0.306,4.343,4.015,60,13.65,48.32
127.81,-0.09,0.435,4.343,4.015,60,13.65,48.35
127.87,-0.022,0.404,4.341,4.015,60,13.65,48.36
127.94,0.101,0.313,4.34,4.013,60,13.65,48.36
128.0,0.269,0.246,4.34,4.012,60,13.65,48.37
128.06,-0.02,0.329,4.339,4.012,60,13.65,48.39
128.13,-0.153,0.274,4.338,4.012,60,13.65,48.37
128.19,-0.143,0.23,4.338,4.012,60,13.65,48.36
128.26,-0.148,0.197,4.335,4.01,60,13.65,48.35
128.32,-0.151,0.14751008968609866,4.335,4.01,60,13.65,48.41
128.39,-0.15,0.116,4.335,4.01,60,13.65,48.55
128.45,-0.147,0.199,4.333,4.008,60,13.65,48.71
128.52,-0.136,0.24874854227405252,4.333,4.007,60,13.65,48.89
128.58,-0.082,0.272,4.333,4.007,60,13.65,49.01
128.65,-0.137,0.225,4.331,4.007,60,13.65,49.12
128.71,-0.015,0.29,4.331,4.006,60,13.65,49.27
128.77,0.145,0.36,4.331,4.005,60,13.65,49.44
128.84,-0.035,0.401,4.328,4.005,60,13.65,49.59
128.9,0.05,0.199,4.328,4.005,60,13.65,49.73
128.97,0.21,0.166,4.326,4.002,60,13.65,49.85
129.03,0.289,0.3,4.326,4.002,60,13.65,49.98
129.1,-0.044,0.363,4.326,4.002,60,13.65,50.08
129.16,-0.093,0.399,4.324,4.002,59,13.65,50.2
129.23,-0.091,0.344,4.323,4.002,59,13.65,50.29
129.29,-0.095,0.378,4.323,4.0,59,13.65,50.34
129.35,-0.1,0.223,4.321,4.0,59,13.65,50.42
129.42,-0.098,0.199,4.321,4.0,59,13.64,50.54
129.48,-0.057,0.197,4.321,3.998,59,13.65,50.67
129.55,-0.081,0.313,4.318,3.997,59,13.65,50.77
129.61,-0.109,0.116,4.318,3.997,59,13.65,50.8
129.68,0.31,0.264,4.316,3.997,59,13.65,50.84
129.74,-0.077,0.342,4.316,3.996,59,13.65,50.91
129.81,0.027,0.254,4.316,3.995,59,13.65,51.0
129.87,0.146,0.116,4.313,3.995,59,13.64,51.07
129.94,0.333,0.20495652173913043,4.313,3.995,59,13.65,51.13
130.0,0.103,0.308,4.313,3.995,59,13.65,51.16
130.06,-0.072,0.326,4.312,3.992,64,13.65,51.17
130.13,-0.072,0.228,4.311,3.992,64,13.65,51.18
130.19,-0.08,0.202,4.309,3.992,64,13.65,51.13
130.26,-0.089,0.254,4.308,3.992,64,13.65,51.07
130.32,-0.086,0.225,4.308,3.991,64,13.65,51.03
130.39,-0.073,0.228,4.307,3.99,64,13.65,51.03
130.45,-0.041,0.228,4.306,3.99,64,13.65,51.03
130.52,-0.101,0.228,4.306,3.99,64,13.65,50.99
130.58,0.253,0.267,4.304,3.987,64,13.65,50.91
130.65,-0.02,0.396,4.303,3.987,64,13.64,50.86
130.71,0.003,0.274,4.302,3.987,64,13.64,50.85
130.77,0.099,0.36,4.301,3.987,64,13.64,50.82
130.84,0.277,0.202,4.301,3.985,64,13.64,50.8
130.9,0.241,0.318,4.301,3.985,64,13.65,50.75
130.97,-0.06,0.308,4.298,3.985,64,13.64,50.7
131.03,-0.077,0.116,4.298,3.985,65,13.65,50.63
131.1,-0.078,0.1915,4.297,3.983,65,13.65,50.53
131.16,-0.092,0.267,4.296,3.982,65,13.65,50.39
131.23,-0.098,0.233,4.296,3.982,65,13.65,50.29
131.29,-0.099,0.163,4.294,3.982,65,13.65,50.22
131.35,-0.089,0.344,4.293,3.981,65,13.65,50.16
131.42,-0.049,0.254,4.293,3.98,65,13.65,50.11
131.48,-0.111,0.316,4.291,3.98,65,13.65,49.99
131.55,0.119,0.293,4.291,3.98,65,13.64,49.87
131.61,0.096,0.324,4.289,3.978,65,13.64,49.79
131.68,-0.011,0.339,4.288,3.978,65,13.65,49.73
131.74,0.071,0.376,4.288,3.978,65,13.65,49.65
131.81,0.236,0.189,4.286,3.978,65,13.64,49.56
131.87,0.258,0.324,4.286,3.975,65,13.65,49.46
131.94,-0.081,0.365,4.286,3.975,65,13.65,49.34
132.0,-0.117,0.116,4.286,3.975,61,13.65,49.23
132.06,-0.119,0.163,4.283,3.975,61,13.64,49.08
132.13,-0.137,0.194,4.283,3.974,61,13.64,48.89
132.19,-0.148,0.163,4.281,3.973,61,13.64,48.77
132.26,-0.151,0.249,4.281,3.973,61,13.64,48.68
132.32,-0.151,0.254,4.281,3.973,61,13.64,48.63
132.39,-0.138,0.163,4.279,3.971,61,13.65,48.58
132.45,-0.102,0.249,4.278,3.97,61,13.65,48.5
132.52,-0.16,0.251,4.277,3.97,61,13.64,48.45
132.58,0.096,0.272,4.276,3.97,61,13.64,48.43
132.65,0.008,0.344,4.276,3.97,61,13.64,48.43
132.71,-0.054,0.274,4.276,3.968,61,13.65,48.42
132.77,0.032,0.228,4.273,3.968,61,13.65,48.42
132.84,0.2,0.274,4.272,3.968,61,13.64,48.41
132.9,0.224,0.199,4.271,3.968,61,13.64,48.41
132.97,-0.109,0.254,4.271,3.965,61,13.64,48.4
133.03,-0.14,0.163,4.271,3.965,58,13.64,48.39
133.1,-0.138,0.329,4.268,3.965,58,13.64,48.34
133.16,-0.151,0.269,4.268,3.965,58,13.64,48.25
133.23,-0.156,0.228,4.267,3.963,58,13.64,48.24
133.29,-0.157,0.111,4.266,3.963,58,13.64,48.24
133.35,-0.155,0.199,4.266,3.963,58,13.64,48.26
133.42,-0.152,0.342,4.266,3.963,58,13.65,48.3
133.48,-0.099,0.332,4.263,3.963,58,13.64,48.27
133.55,-0.147,0.166,4.263,3.961,58,13.64,48.28
133.61,-0.159,0.298,4.263,3.96,58,13.64,48.34
133.68,0.219,0.337,4.262,3.96,58,13.64,48.43
133.74,-0.073,0.166,4.261,3.959,58,13.64,48.52
133.81,-0.005,0.116,4.261,3.958,58,13.64,48.64
133.87,0.129,0.11445121951219513,4.259,3.958,58,13.64,48.74
133.94,0.292,0.114,4.258,3.958,58,13.64,48.85
134.0,-0.004,0.347,4.258,3.956,58,13.64,48.95
134.06,-0.124,0.347,4.257,3.956,56,13.64,49.07
134.13,-0.12,0.316,4.256,3.955,56,13.64,49.15
134.19,-0.127,0.438,4.256,3.955,56,13.64,49.18
134.26,-0.133,0.363,4.254,3.955,56,13.64,49.25
134.32,-0.133,0.363,4.253,3.954,56,13.64,49.35
134.39,-0.124,0.22,4.252,3.953,56,13.64,49.5
134.45,-0.07,0.28099999999999997,4.251,3.953,56,13.64,49.65
134.52,-0.121,0.342,4.251,3.951,56,13.64,49.74
134.58,-0.108,0.269,4.249,3.953,56,13.64,49.8
134.65,0.237,0.199,4.248,3.95,56,13.64,49.92
134.71,-0.038,0.399,4.248,3.95,56,13.64,50.05
134.77,0.038,0.293,4.248,3.95,56,13.64,50.19
134.84,0.185,0.306,4.246,3.95,56,13.64,50.31
134.9,0.315,0.174,4.246,3.949,56,13.64,50.43
134.97,-0.009,0.368,4.246,3.948,56,13.64,50.54
135.03,-0.091,0.251,4.244,3.948,62,13.64,50.61
135.1,-0.087,0.249,4.244,3.948,62,13.64,50.68
135.16,-0.097,0.23326649488890766,4.244,3.948,62,13.64,50.68
135.23,-0.102,0.199,4.241,3.946,62,13.64,50.7
135.29,-0.092,0.119,4.241,3.945,62,13.64,50.76
135.35,-0.042,0.272,4.241,3.945,62,13.64,50.83
135.42,-0.117,0.272,4.239,3.945,62,13.64,50.9
135.48,0.098,0.251,4.239,3.943,62,13.64,50.88
135.55,0.074,0.311,4.237,3.943,62,13.64,50.86
135.61,-0.023,0.116,4.236,3.943,62,13.64,50.86
135.68,0.066,0.199,4.236,3.943,62,13.64,50.89
135.74,0.234,0.23889906869844935,4.235,3.943,62,13.64,50.89
135.81,0.247,0.28,4.234,3.94,62,13.64,50.89
135.87,-0.069,0.373,4.234,3.94,62,13.64,50.86
135.94,-0.098,0.357,4.232,3.94,67,13.64,50.83
136.0,-0.099,0.329,4.231,3.94,67,13.64,50.74
136.06,-0.112,0.329,4.231,3.939,67,13.64,50.61
136.13,-0.119,0.329,4.229,3.938,67,13.64,50.49
136.19,-0.108,0.267,4.229,3.938,67,13.64,50.39
136.26,-0.061,0.163,4.229,3.938,67,13.64,50.32
136.32,-0.134,0.272,4.227,3.936,67,13.64,50.23
136.39,0.132,0.267,4.226,3.935,67,13.64,50.06
136.45,0.012,0.373,4.224,3.935,67,13.64,49.91
136.52,-0.045,0.306,4.224,3.935,67,13.64,49.79
136.58,0.047,0.347,4.224,3.935,67,13.65,49.68
136.65,0.226,0.197,4.222,3.934,67,13.64,49.58
136.71,0.223,0.326,4.221,3.933,67,13.64,49.45
136.77,-0.103,0.378,4.221,3.933,67,13.64,49.31
136.84,-0.134,0.194,4.219,3.933,66,13.64,49.17
136.9,-0.136,0.293,4.219,3.933,66,13.64,48.98
136.97,-0.152,0.401,4.219,3.931,66,13.64,48.78
137.03,-0.159,0.347,4.217,3.93,66,13.64,48.66
137.1,-0.161,0.166,4.216,3.93,66,13.64,48.57
137.16,-0.161,0.15,4.216,3.93,66,13.64,48.54
137.23,-0.112,0.124,4.215,3.93,66,13.64,48.51
137.29,-0.149,0.155,4.214,3.929,66,13.64,48.45
137.35,-0.18,0.293,4.214,3.928,66,13.64,48.42
137.42,0.218,0.295,4.211,3.928,66,13.64,48.42
137.48,-0.115,0.376,4.211,3.928,66,13.64,48.43
137.55,-0.052,0.414,4.211,3.928,66,13.64,48.43
137.61,0.07,0.225,4.209,3.926,60,13.64,48.42
137.68,0.253,0.161,4.209,3.925,60,13.64,48.43
137.74,0.003,0.228,4.209,3.925,60,13.64,48.43
137.81,-0.161,0.251,4.209,3.925,60,13.64,48.41
137.87,-0.151,0.326,4.209,3.925,60,13.64,48.41
137.94,-0.15,0.311,4.209,3.925,60,13.64,48.32
138.0,-0.155,0.233,4.209,3.925,60,13.64,48.28
138.06,-0.152,0.225,4.207,3.925,60,13.65,48.27
138.13,-0.147,0.161,4.206,3.924,60,13.64,48.29
138.19,-0.142,0.23,4.206,3.923,60,13.65,48.32
138.26,-0.088,0.199,4.206,3.923,60,13.65,48.31
138.32,-0.131,0.199,4.206,3.923,60,13.65,48.3
138.39,-0.147,0.249,4.204,3.923,60,13.65,48.32
138.45,0.237,0.267,4.204,3.923,60,13.65,48.36
138.52,-0.083,0.357,4.204,3.923,60,13.65,48.37
138.58,-0.013,0.249,4.204,3.92,60,13.65,48.38
138.65,0.107,0.116,4.204,3.92,60,13.65,48.39
138.71,0.289,0.114,4.204,3.92,60,13.65,48.4
138.77,0.042,0.355,4.202,3.92,60,13.65,48.4
138.84,-0.127,0.23,4.201,3.92,58,13.65,48.4
138.9,-0.12,0.344,4.201,3.92,58,13.65,48.37
138.97,-0.127,0.277,4.2,3.919,58,13.65,48.35
139.03,-0.137,0.342,4.199,3.918,58,13.66,48.43
139.1,-0.135,0.344,4.199,3.918,58,13.65,48.55
139.16,-0.132,0.199,4.199,3.918,58,13.65,48.72
139.23,-0.126,0.116,4.199,3.915,58,13.65,48.91
139.29,-0.069,0.166,4.197,3.915,58,13.65,49.05
139.35,-0.124,0.19092367305484415,4.196,3.915,58,13.65,49.14
139.42,-0.089,0.22,4.196,3.915,58,13.65,49.26
139.48,0.228,0.313,4.196,3.914,58,13.65,49.38
139.55,-0.029,0.334,4.194,3.913,58,13.65,49.49
139.61,0.047,0.225,4.194,3.913,58,13.65,49.61
139.68,0.198,0.254,4.194,3.913,58,13.65,49.73
139.74,0.321,0.262,4.192,3.913,58,13.65,49.86
139.81,-0.009,0.391,4.191,3.911,58,13.65,49.95
139.87,-0.087,0.241,4.191,3.91,59,13.65,50.06
139.94,-0.082,0.116,4.191,3.91,59,13.65,50.15
140.0,-0.093,0.228,4.189,3.91,59,13.65,50.2
140.06,-0.1,0.355,4.189,3.909,59,13.66,50.28
140.13,-0.098,0.342,4.189,3.908,59,13.66,50.4
140.19,-0.08,0.293,4.187,3.908,59,13.65,50.52
140.26,-0.053,0.373,4.186,3.908,59,13.65,50.65
140.32,-0.104,0.293,4.186,3.908,59,13.66,50.69
140.39,0.254,0.124,4.184,3.908,59,13.66,50.74
140.45,-0.039,0.254,4.184,3.905,59,13.66,50.82
140.52,0.006,0.223,4.184,3.905,59,13.66,50.92
140.58,0.099,0.251,4.181,3.905,59,13.66,51.01
140.65,0.279,0.324,4.181,3.905,59,13.66,51.06
140.71,0.237,0.254,4.181,3.905,59,13.66,51.12
140.77,-0.063,0.251,4.179,3.904,59,13.66,51.13
140.84,-0.079,0.311,4.179,3.903,63,13.65,51.16
140.9,-0.081,0.293,4.179,3.903,63,13.65,51.13
140.97,-0.089,0.161,4.176,3.903,63,13.65,51.08
141.03,-0.092,0.311,4.176,3.901,63,13.66,51.04
141.1,-0.087,0.111,4.174,3.9,63,13.65,51.03
141.16,-0.031,0.256,4.174,3.9,63,13.66,51.04
141.23,-0.092,0.244,4.174,3.9,63,13.66,51.03
141.29,-0.062,0.293,4.171,3.899,63,13.66,50.96
141.35,0.274,0.246,4.171,3.898,63,13.66,50.9
141.42,-0.011,0.277,4.171,3.898,63,13.66,50.88
141.48,0.065,0.37,4.17,3.898,63,13.66,50.85
141.55,0.219,0.29650000000000004,4.169,3.896,63,13.65,50.83
141.61,0.33,0.223,4.169,3.898,63,13.66,50.77
141.68,0.0,0.277,4.166,3.895,63,13.65,50.69
141.74,-0.065,0.342,4.166,3.895,64,13.65,50.57
141.81,-0.057,0.344,4.166,3.895,64,13.65,50.44
141.87,-0.07,0.313,4.164,3.895,64,13.65,50.24
141.94,-0.074,0.254,4.164,3.893,64,13.65,50.07
142.0,-0.074,0.23,4.162,3.893,64,13.66,49.95
142.06,-0.069,0.363,4.161,3.893,64,13.66,49.85
142.13,-0.015,0.293,4.161,3.893,64,13.65,49.78
142.19,-0.057,0.199,4.16,3.893,64,13.66,49.66
142.26,-0.075,0.155,4.159,3.891,64,13.66,49.54
142.32,0.34,0.246,4.159,3.891,64,13.66,49.45
142.39,0.009,0.36,4.157,3.891,64,13.66,49.38
142.45,0.077,0.376,4.156,3.891,64,13.65,49.32
142.52,0.211,0.22,4.156,3.889,64,13.65,49.24
142.58,0.18073448687350835,0.111,4.156,3.888,64,13.65,49.15
142.65,0.111,0.43,4.154,3.888,64,13.65,49.06
142.71,-0.036,0.451,4.154,3.888,60,13.65,48.96
142.77,-0.028,0.202,4.153,3.887,60,13.65,48.88
142.84,-0.034,0.163,4.152,3.888,60,13.65,48.72
142.9,-0.044,0.199,4.152,3.886,60,13.65,48.61
142.97,-0.048,0.251,4.152,3.886,60,13.65,48.56
143.03,-0.05,0.199,4.15,3.886,60,13.65,48.52
143.1,-0.055,0.21222978596908443,4.149,3.884,60,13.65,48.53
143.16,-0.017,0.244,4.149,3.884,60,13.65,48.49
143.23,-0.072,0.321,4.148,3.883,60,13.65,48.43
143.29,-0.094,0.274,4.147,3.883,60,13.65,48.43
143.35,0.3,0.225,4.147,3.883,60,13.65,48.45
143.42,-0.023,0.256,4.145,3.883,60,13.65,48.47
143.48,0.046,0.197,4.147,3.882,60,13.65,48.47
143.55,0.175,0.228,4.144,3.881,60,13.65,48.46
143.61,0.15728835978835978,0.199,4.145,3.881,60,13.65,48.46
143.68,0.11,0.401,4.144,3.881,60,13.65,48.46
143.74,-0.062,0.357,4.143,3.881,58,13.65,48.44
143.81,-0.063,0.161,4.142,3.879,58,13.65,48.43
143.87,-0.074,0.194,4.142,3.878,58,13.65,48.35
143.94,-0.086,0.116,4.142,3.878,58,13.65,48.3
144.0,-0.086,0.199,4.139,3.878,58,13.65,48.32
144.06,-0.088,0.17600000000000002,4.139,3.877,58,13.65,48.43
144.13,-0.087,0.153,4.139,3.877,58,13.65,48.59
144.19,-0.037,0.251,4.137,3.876,58,13.65,48.7
144.26,-0.073,0.401,4.137,3.876,58,13.65,48.78
144.32,-0.093,0.311,4.137,3.876,58,13.65,48.91
144.39,0.303,0.244,4.137,3.876,58,13.65,49.07
144.45,-0.035,0.29,4.134,3.873,58,13.65,49.23
144.52,0.043,0.197,4.134,3.873,58,13.65,49.37
144.58,0.166,0.246,4.132,3.873,58,13.65,49.5
144.65,0.351,0.23,4.132,3.873,58,13.65,49.66
144.71,0.103,0.357,4.132,3.873,58,13.65,49.78
144.77,-0.075,0.272,4.132,3.873,58,13.65,49.9
144.84,-0.075,0.267,4.132,3.872,58,13.65,50.0
144.9,-0.084,0.311,4.129,3.871,58,13.65,50.06
144.97,-0.094,0.197,4.129,3.871,58,13.65,50.12
145.03,-0.097,0.199,4.128,3.871,58,13.65,50.24
145.1,-0.098,0.163,4.127,3.868,58,13.65,50.38
145.16,-0.05,0.35,4.127,3.868,58,13.64,50.52
145.23,-0.102,0.329,4.127,3.868,58,13.65,50.59
145.29,-0.108,0.396,4.124,3.868,58,13.65,50.63
145.35,0.279,0.29,4.124,3.868,58,13.65,50.72
145.42,-0.026,0.363,4.124,3.867,58,13.65,50.83
145.48,0.044,0.277,4.122,3.866,58,13.64,50.94
145.55,0.184,0.2358860630722279,4.122,3.866,58,13.65,51.01
145.61,0.331,0.218,4.122,3.866,58,13.65,51.09
145.68,0.012,0.329,4.12,3.866,58,13.64,51.13
145.74,-0.092,0.254,4.119,3.864,62,13.64,51.16
145.81,-0.093,0.228,4.119,3.863,62,13.65,51.19
145.87,-0.107,0.293,4.119,3.863,62,13.65,51.16
145.94,-0.116,0.288,4.117,3.863,62,13.65,51.14
146.0,-0.118,0.161,4.117,3.863,62,13.64,51.15
146.06,-0.084,0.264,4.117,3.862,62,13.65,51.15
146.13,-0.087,0.332,4.114,3.861,62,13.65,51.16
146.19,-0.129,0.321,4.114,3.861,62,13.64,51.11
146.26,0.322,0.282,4.113,3.861,62,13.65,51.03
146.32,-0.121,0.318,4.112,3.861,62,13.65,51.02
146.39,0.0,0.116,4.112,3.859,62,13.65,51.01
146.45,0.111,0.197,4.112,3.858,62,13.65,51.0
146.52,0.296,0.194,4.109,3.858,62,13.65,50.97
146.58,0.121,0.311,4.109,3.858,62,13.65,50.93
146.65,-0.098,0.313,4.108,3.856,65,13.64,50.84
146.71,-0.098,0.189,4.107,3.856,65,13.64,50.76
146.77,-0.105,0.274,4.107,3.856,65,13.64,50.63
146.84,-0.115,0.116,4.107,3.856,65,13.64,50.49
146.9,-0.118,0.163,4.105,3.854,65,13.65,50.38
146.97,-0.117,0.321,4.104,3.854,65,13.65,50.29
147.03,-0.086,0.29,4.104,3.854,65,13.65,50.24
147.1,-0.084,0.19214445438282646,4.102,3.853,65,13.65,50.16
147.16,-0.124,0.116,4.102,3.853,65,13.65,50.04
147.23,0.344,0.293,4.102,3.853,65,13.65,49.96
147.29,-0.117,0.37,4.099,3.852,65,13.64,49.9
147.35,0.009,0.388,4.099,3.851,65,13.64,49.85
147.42,0.119,0.114,4.099,3.851,65,13.64,49.79
147.48,0.308,0.148384110787172,4.097,3.851,65,13.63,49.72
147.55,0.16,0.225,4.097,3.851,65,13.63,49.63
147.61,-0.086,0.37,4.097,3.851,61,13.64,49.54
147.68,-0.095,0.368,4.097,3.849,61,13.64,49.43
147.74,-0.098,0.313,4.094,3.848,61,13.64,49.27
147.81,-0.11,0.116,4.094,3.848,61,13.63,49.12
147.87,-0.115,0.116,4.094,3.848,61,13.63,49.04
147.94,-0.113,0.197,4.092,3.847,61,13.63,48.98
148.0,-0.111,0.119,4.092,3.846,61,13.63,48.95
148.06,-0.097,0.1419792531120332,4.092,3.846,61,13.63,48.89
148.13,-0.052,0.197,4.09,3.846,61,13.63,48.8
148.19,-0.111,0.329,4.089,3.846,61,13.63,48.72
148.26,0.058,0.249,4.089,3.844,61,13.63,48.7
148.32,0.148,0.357,4.088,3.843,61,13.63,48.69
148.39,-0.007,0.272,4.087,3.843,61,13.63,48.62
148.45,0.073,0.199,4.087,3.843,61,13.63,48.58
148.52,0.228,0.197,4.087,3.843,61,13.63,48.54
148.58,0.285,0.308,4.087,3.842,61,13.63,48.53
148.65,-0.058,0.339,4.084,3.841,61,13.63,48.5
148.71,-0.104,0.311,4.084,3.841,56,13.63,48.48
148.77,-0.105,0.277,4.084,3.841,56,13.63,48.41
148.84,-0.118,0.197,4.082,3.841,56,13.63,48.32
148.9,-0.125,0.163,4.082,3.841,56,13.63,48.3
148.97,-0.127,0.254,4.082,3.838,56,13.63,48.29
149.03,-0.124,0.199,4.079,3.838,56,13.63,48.3
149.1,-0.123,0.199,4.079,3.838,56,13.63,48.34
149.16,-0.075,0.311,4.079,3.838,56,13.63,48.34
149.23,-0.112,0.311,4.079,3.837,56,13.63,48.32
149.29,-0.134,0.161,4.078,3.838,56,13.63,48.35
149.35,0.259,0.225,4.077,3.836,56,13.63,48.39
149.42,-0.074,0.316,4.077,3.836,56,13.63,48.47
149.48,-0.001,0.163,4.077,3.836,56,13.63,48.58
149.55,0.112,0.376,4.074,3.836,56,13.63,48.72
149.61,0.293,0.199,4.074,3.834,56,13.63,48.88
149.68,0.056,0.36,4.074,3.833,56,13.63,49.01
149.74,-0.131,0.357,4.073,3.833,56,13.63,49.13
149.81,-0.128,0.254,4.072,3.833,56,13.63,49.25
149.87,-0.135,0.251,4.072,3.833,56,13.63,49.29
149.94,-0.146,0.308,4.07,3.833,56,13.63,49.37
150.0,-0.151,0.23,4.069,3.831,56,13.63,49.5
150.06,-0.149,0.225,4.069,3.831,56,13.63,49.66
150.13,-0.125,0.197,4.069,3.831,56,13.63,49.8
150.19,-0.106,0.311,4.067,3.831,56,13.63,49.89
150.26,-0.155,0.37,4.067,3.831,56,13.63,49.96
150.32,0.287,0.306,4.067,3.829,56,13.63,50.06
150.39,-0.161,0.3,4.067,3.828,56,13.63,50.21
150.45,-0.032,0.2601063829787234,4.065,3.828,56,13.63,50.33
150.52,0.065,0.225,4.065,3.828,60,13.63,50.45
150.58,0.249,0.23239875111507585,4.065,3.828,60,13.63,50.56
150.65,0.162,0.254,4.065,3.827,60,13.63,50.67
150.71,-0.117,0.376,4.062,3.826,60,13.63,50.76
150.77,-0.129,0.357,4.062,3.826,60,13.63,50.85
150.84,-0.133,0.313,4.061,3.826,60,13.63,50.9
150.9,-0.141,0.197,4.06,3.826,60,13.63,50.92
150.97,-0.144,0.228,4.06,3.824,60,13.64,50.97
151.03,-0.143,0.308,4.06,3.823,60,13.64,51.01
151.1,-0.089,0.132,4.057,3.823,60,13.64,51.09
151.16,-0.142,0.116,4.057,3.823,60,13.63,51.1
151.23,-0.141,0.313,4.057,3.823,60,13.64,51.07
151.29,0.229,0.251,4.056,3.823,60,13.64,51.07
151.35,-0.068,0.199,4.055,3.822,60,13.64,51.08
151.42,0.002,0.23,4.055,3.821,60,13.63,51.12
151.48,0.144,0.228,4.055,3.821,64,13.64,51.14
151.55,0.278,0.249,4.052,3.821,64,13.64,51.14
151.61,-0.04,0.326,4.052,3.821,64,13.64,51.13
151.68,-0.13,0.365,4.052,3.819,64,13.63,51.11
151.74,-0.126,0.36,4.051,3.818,64,13.63,51.06
151.81,-0.138,0.332,4.05,3.818,64,13.64,50.99
151.87,-0.149,0.399,4.05,3.818,64,13.63,50.9
151.94,-0.15,0.168,4.048,3.818,64,13.64,50.86
152.0,-0.105,0.197,4.047,3.817,64,13.63,50.83
152.06,-0.131,0.264,4.047,3.816,64,13.63,50.81
152.13,-0.17,0.357,4.046,3.816,64,13.63,50.71
152.19,0.256,0.306,4.045,3.816,64,13.63,50.59
152.26,-0.129,0.313,4.045,3.816,64,13.64,50.52
152.32,-0.034,0.293,4.045,3.816,64,13.64,50.47
152.39,0.085,0.2657894736842105,4.045,3.814,65,13.63,50.42
152.45,0.268,0.249,4.042,3.813,65,13.63,50.35
152.52,0.036,0.326,4.042,3.813,65,13.63,50.28
152.58,-0.143,0.332,4.042,3.813,65,13.63,50.17
152.65,-0.136,0.116,4.04,3.813,65,13.63,50.04
152.71,-0.142,0.199,4.04,3.813,65,13.63,49.83
152.77,-0.152,0.254,4.04,3.811,65,13.63,49.63
152.84,-0.154,0.251,4.038,3.811,65,13.63,49.5
152.9,-0.149,0.373,4.037,3.811,65,13.63,49.41
152.97,-0.143,0.332,4.037,3.811,65,13.63,49.34
153.03,-0.102,0.29434223300970874,4.036,3.811,65,13.63,49.24
153.1,-0.108,0.274,4.035,3.808,65,13.63,49.11
153.16,-0.136,0.347,4.035,3.808,65,13.63,49.02
153.23,0.317,0.228,4.035,3.808,65,13.63,48.97
153.29,-0.108,0.277,4.032,3.808,65,13.63,48.9
153.35,0.006,0.199,4.032,3.808,65,13.63,48.84
153.42,0.119,0.311,4.03,3.806,65,13.63,48.77
153.48,0.313,0.186,4.03,3.806,65,13.63,48.72
153.55,0.162,0.329,4.03,3.806,65,13.63,48.65
153.61,-0.073,0.311,4.03,3.806,57,13.63,48.59
153.68,-0.069,0.163,4.027,3.806,57,13.63,48.55
153.74,-0.069,0.114,4.027,3.804,57,13.63,48.43
153.81,-0.074,0.163,4.026,3.803,57,13.63,48.33
153.87,-0.076,0.225,4.025,3.803,57,13.63,48.3
153.94,-0.073,0.277,4.025,3.803,57,13.63,48.3
154.0,-0.069,0.23,4.025,3.803,57,13.64,48.32
154.06,-0.059,0.363,4.023,3.803,57,13.64,48.32
154.13,-0.004,0.277,4.022,3.803,57,13.64,48.31
154.19,-0.06,0.3,4.022,3.802,57,13.64,48.31
154.26,-0.027,0.308,4.021,3.801,57,13.64,48.34
154.32,0.297,0.254,4.02,3.801,57,13.63,48.37
154.39,0.028,0.225,4.02,3.801,57,13.64,48.37
154.45,0.101,0.329,4.02,3.801,57,13.64,48.39
154.52,0.243,0.197,4.018,3.8,57,13.64,48.4
154.58,0.16729722703639513,0.269,4.017,3.799,57,13.64,48.4
154.65,0.044,0.357,4.017,3.799,57,13.64,48.4
154.71,-0.048,0.274,4.016,3.799,55,13.64,48.41
154.77,-0.043,0.161,4.015,3.799,55,13.63,48.38
154.84,-0.056,0.251,4.015,3.799,55,13.63,48.28
154.9,-0.066,0.161,4.015,3.797,55,13.63,48.31
154.97,-0.066,0.116,4.012,3.796,55,13.63,48.41
155.03,-0.067,0.194,4.012,3.796,55,13.63,48.54
155.1,-0.066,0.254,4.012,3.796,55,13.63,48.66
155.16,-0.015,0.295,4.011,3.796,55,13.63,48.73
155.23,-0.063,0.267,4.01,3.794,55,13.63,48.84
155.29,-0.077,0.334,4.01,3.794,55,13.63,49.0
155.35,0.301,0.363,4.01,3.794,55,13.63,49.15
155.42,0.005,0.192,4.007,3.794,55,13.63,49.3
155.48,0.074,0.2051661474558671,4.007,3.794,55,13.63,49.43
155.55,0.204,0.23899896157840084,4.006,3.794,55,13.63,49.57
155.61,0.16450305997552017,0.285,4.005,3.791,55,13.64,49.72
155.68,0.082,0.37,4.005,3.791,55,13.64,49.82
155.74,-0.046,0.295,4.005,3.791,57,13.64,49.92
155.81,-0.039,0.357,4.005,3.791,57,13.64,50.0
155.87,-0.046,0.337,4.003,3.791,57,13.64,50.05
155.94,-0.052,0.363,4.002,3.789,57,13.65,50.12
156.0,-0.052,0.22,4.002,3.789,57,13.65,50.24
156.06,-0.046,0.29,4.0,3.789,57,13.65,50.38
156.13,0.002,0.197,4.0,3.789,57,13.65,50.52
156.19,-0.054,0.23,4.0,3.789,57,13.64,50.59
156.26,0.046,0.272,3.998,3.789,57,13.65,50.63
156.32,0.24,0.342,3.997,3.789,57,13.65,50.71
156.39,0.032,0.228,3.997,3.786,57,13.65,50.81
156.45,0.112,0.23353767123287672,3.997,3.786,57,13.64,50.9
156.52,0.265,0.249,3.995,3.786,57,13.64,50.99
156.58,0.345,0.318,3.995,3.786,57,13.64,51.06
156.65,0.008,0.339,3.995,3.785,57,13.64,51.1
156.71,-0.044,0.251,3.992,3.786,63,13.64,51.15
156.77,-0.045,0.228,3.992,3.784,63,13.64,51.16
156.84,-0.058,0.161,3.992,3.784,63,13.64,51.12
156.9,-0.064,0.116,3.991,3.784,63,13.64,51.07
156.97,-0.066,0.223,3.99,3.784,63,13.64,51.03
157.03,-0.008,0.36,3.99,3.784,63,13.64,51.02
157.1,-0.069,0.298,3.987,3.781,63,13.64,51.0
157.16,-0.082,0.324,3.987,3.781,63,13.64,50.9
157.23,0.302,0.251,3.987,3.781,63,13.64,50.79
157.29,-0.005,0.119,3.986,3.781,63,13.64,50.74
157.35,0.064,0.116,3.985,3.781,63,13.64,50.7
157.42,0.201,0.329,3.985,3.779,63,13.64,50.66
157.48,0.339,0.373,3.985,3.78,63,13.64,50.61
157.55,0.024,0.357,3.983,3.779,63,13.64,50.51
157.61,-0.075,0.228,3.982,3.779,65,13.64,50.42
157.68,-0.069,0.295,3.982,3.779,65,13.64,50.27
157.74,-0.08,0.254,3.981,3.779,65,13.64,50.07
157.81,-0.089,0.37,3.98,3.777,65,13.64,49.87
157.87,-0.091,0.363,3.98,3.777,65,13.64,49.72
157.94,-0.09,0.363,3.98,3.776,65,13.64,49.59
158.0,-0.056,0.249,3.978,3.776,65,13.64,49.5
158.06,-0.057,0.298,3.978,3.776,65,13.64,49.36
158.13,-0.1,0.228,3.978,3.776,65,13.64,49.21
158.19,0.357,0.225,3.978,3.774,65,13.64,49.1
158.26,-0.098,0.293,3.975,3.774,65,13.64,49.01
158.32,0.022,0.228,3.975,3.774,65,13.64,48.92
158.39,0.132,0.316,3.975,3.774,65,13.64,48.83
158.45,0.321,0.272,3.973,3.774,65,13.64,48.76
158.52,0.181,0.347,3.973,3.772,65,13.64,48.69
158.58,-0.071,0.332,3.973,3.772,60,13.64,48.62
158.65,-0.075,0.401,3.971,3.772,60,13.64,48.56
158.71,-0.086,0.251,3.97,3.772,60,13.64,48.45
158.77,-0.091,0.251,3.97,3.771,60,13.64,48.36
158.84,-0.093,0.202,3.97,3.771,60,13.64,48.33
158.9,-0.093,0.19968734643734645,3.969,3.771,60,13.64,48.32
158.97,-0.09,0.199,3.968,3.771,60,13.64,48.36
159.03,-0.043,0.199,3.968,3.77,60,13.63,48.34
159.1,-0.074,0.254,3.968,3.77,60,13.63,48.33
159.16,-0.098,0.313,3.966,3.769,60,13.63,48.35
159.23,0.313,0.254,3.965,3.769,60,13.63,48.37
159.29,-0.052,0.316,3.965,3.769,60,13.63,48.4
159.35,0.037,0.254,3.965,3.769,60,13.63,48.4
159.42,0.151,0.116,3.963,3.766,60,13.63,48.4
159.48,0.338,0.256,3.963,3.766,60,13.63,48.41
159.55,0.132,0.29,3.963,3.766,60,13.63,48.42
159.61,-0.076,0.308,3.963,3.766,58,13.63,48.42
159.68,-0.073,0.274,3.963,3.766,58,13.64,48.5
159.74,-0.078,0.277,3.96,3.766,58,13.64,48.53
159.81,-0.089,0.194,3.96,3.765,58,13.64,48.62
159.87,-0.092,0.324,3.958,3.764,58,13.64,48.77
159.94,-0.089,0.116,3.958,3.764,58,13.64,48.93
160.0,-0.057,0.15,3.958,3.764,58,13.64,49.12
160.06,-0.048,0.316,3.958,3.764,58,13.64,49.27
160.13,-0.09,0.202,3.955,3.764,58,13.64,49.38
160.19,0.351,0.285,3.955,3.762,58,13.64,49.49
160.26,-0.101,0.293,3.955,3.761,58,13.64,49.66
160.32,0.033,0.202,3.954,3.761,58,13.64,49.82
160.39,0.137,0.14257363013698632,3.953,3.761,58,13.64,49.97
160.45,0.322,0.114,3.953,3.761,58,13.63,50.09
160.52,0.228,0.399,3.953,3.761,58,13.64,50.22
160.58,-0.041,0.313,3.953,3.761,61,13.64,50.32
160.65,-0.044,0.277,3.95,3.759,61,13.64,50.44
160.71,-0.045,0.251,3.95,3.759,61,13.64,50.5
160.77,-0.052,0.401,3.95,3.759,61,13.64,50.56
160.84,-0.05,0.23,3.949,3.759,61,13.64,50.67
160.9,0.009,0.251,3.948,3.759,61,13.64,50.8
160.97,-0.043,0.295,3.948,3.756,61,13.64,50.95
161.03,-0.067,0.388,3.948,3.756,61,13.64,51.01
161.1,0.328,0.244,3.945,3.756,61,13.64,51.02
161.16,0.007,0.205,3.945,3.756,61,13.63,51.07
161.23,0.084,0.158,3.945,3.756,61,13.63,51.15
161.29,0.212,0.122,3.944,3.756,61,13.63,51.2
161.35,0.16756736526946106,0.194,3.943,3.755,61,13.63,51.25
161.42,0.078,0.225,3.943,3.754,61,13.64,51.27
161.48,-0.047,0.293,3.943,3.754,68,13.63,51.29
161.55,-0.048,0.168,3.943,3.754,68,13.63,51.27
161.61,-0.061,0.251,3.941,3.754,68,13.63,51.2
161.68,-0.069,0.37,3.94,3.754,68,13.63,51.11
161.74,-0.06,0.373,3.94,3.754,68,13.63,51.04
161.81,-0.012,0.228,3.94,3.751,68,13.63,51.01
161.87,-0.087,0.254,3.938,3.751,68,13.63,50.97
161.94,0.121,0.244,3.938,3.751,68,13.63,50.87
162.0,0.124,0.311,3.938,3.751,68,13.64,50.74
162.06,0.005,0.272,3.936,3.751,68,13.64,50.65
162.13,0.094,0.272,3.935,3.751,68,13.63,50.58
162.19,0.26,0.199,3.935,3.75,68,13.63,50.52
162.26,0.284,0.313,3.935,3.749,68,13.63,50.44
162.32,-0.042,0.23,3.934,3.749,68,13.63,50.34
162.39,-0.075,0.197,3.933,3.749,68,13.63,50.22
162.45,-0.073,0.274,3.933,3.749,68,13.63,50.07
162.52,-0.086,0.399,3.933,3.749,68,13.63,49.9
162.58,-0.094,0.174,3.93,3.749,68,13.63,49.74
162.65,-0.097,0.399,3.93,3.747,68,13.63,49.62
162.71,-0.098,0.223,3.929,3.746,68,13.63,49.55
162.77,-0.036,0.114,3.928,3.746,68,13.63,49.48
162.84,-0.097,0.116,3.928,3.746,68,13.63,49.35
162.9,-0.11,0.326,3.928,3.746,68,13.63,49.25
162.97,0.288,0.272,3.928,3.746,68,13.63,49.18
163.03,-0.028,0.298,3.926,3.745,68,13.63,49.11
163.1,0.04,0.316,3.925,3.744,68,13.63,49.06
163.16,0.178,0.116,3.925,3.744,60,13.63,49.0
163.23,0.335,0.161,3.923,3.744,60,13.63,48.92
163.29,0.027,0.29,3.923,3.744,60,13.63,48.85
163.35,-0.089,0.357,3.923,3.744,60,13.63,48.78
163.42,-0.083,0.388,3.923,3.744,60,13.63,48.69
163.48,-0.095,0.295,3.921,3.741,60,13.63,48.54
163.55,-0.106,0.313,3.92,3.741,60,13.63,48.45
163.61,-0.108,0.228,3.92,3.741,60,13.63,48.43
163.68,-0.108,0.269,3.92,3.741,60,13.63,48.41
163.74,-0.106,0.228,3.918,3.741,60,13.63,48.43
163.81,-0.086,0.256,3.918,3.741,60,13.63,48.39
163.87,-0.057,0.332,3.918,3.741,60,13.63,48.36
163.94,-0.113,0.344,3.918,3.739,60,13.63,48.37
164.0,0.225,0.277,3.915,3.739,60,13.63,48.4
164.06,-0.019,0.36,3.915,3.739,60,13.63,48.41
164.13,-0.004,0.313,3.915,3.739,60,13.63,48.41
164.19,0.085,0.326,3.913,3.739,60,13.63,48.42
164.26,0.257,0.24450000000000002,3.913,3.736,60,13.63,48.42
164.32,0.263,0.163,3.913,3.736,60,13.61,48.42
164.39,-0.062,0.199,3.911,3.736,60,13.63,48.42
164.45,-0.089,0.1774814814814815,3.91,3.736,55,13.61,48.42
164.52,-0.09,0.1375185185185185,3.91,3.736,55,13.63,48.36
164.58,-0.104,0.116,3.909,3.736,55,13.61,48.3
164.65,-0.111,0.277,3.908,3.736,55,13.63,48.28
164.71,-0.112,0.251,3.908,3.734,55,13.63,48.34
164.77,-0.111,0.199,3.908,3.734,55,13.63,48.47
164.84,-0.098,0.272,3.908,3.734,55,13.63,48.61
164.9,-0.055,0.272,3.906,3.734,55,13.61,48.74
164.97,-0.113,0.272,3.905,3.734,55,13.61,48.88
165.03,0.08,0.288,3.905,3.734,55,13.63,49.06
165.1,0.096,0.324,3.904,3.734,55,13.63,49.23
165.16,-0.013,0.329,3.904,3.732,55,13.63,49.39
165.23,0.073,0.23,3.903,3.731,55,13.63,49.51
165.29,0.234,0.163,3.903,3.731,55,13.64,49.66
165.35,0.292,0.308,3.903,3.731,55,13.64,49.8
165.42,-0.04,0.311,3.9,3.731,55,13.64,49.91
165.48,-0.083,0.311,3.9,3.73,58,13.64,50.01
165.55,-0.078,0.116,3.9,3.731,58,13.64,50.08
165.61,-0.087,0.194,3.9,3.729,58,13.64,50.11
165.68,-0.088,0.313,3.9,3.729,58,13.63,50.19
165.74,-0.085,0.158,3.899,3.729,58,13.64,50.32
165.81,-0.054,0.168,3.898,3.729,58,13.64,50.45
165.87,-0.047,0.228,3.898,3.729,58,13.64,50.58
165.94,-0.088,0.332,3.896,3.729,58,13.64,50.6
166.0,0.358,0.244,3.895,3.727,58,13.64,50.64
166.06,-0.094,0.306,3.895,3.726,58,13.64,50.71
166.13,0.036,0.163,3.895,3.726,58,13.64,50.82
166.19,0.138,0.251,3.895,3.726,58,13.64,50.86
166.26,0.321,0.295,3.894,3.726,58,13.64,50.9
166.32,0.187,0.355,3.893,3.726,58,13.64,50.92
166.39,-0.058,0.386,3.893,3.724,63,13.64,50.91
166.45,-0.064,0.163,3.893,3.724,63,13.64,50.9
166.52,-0.071,0.293,3.891,3.724,63,13.64,50.82
166.58,-0.081,0.293,3.891,3.724,63,13.64,50.72
166.65,-0.083,0.347,3.891,3.724,63,13.64,50.65
166.71,-0.075,0.295,3.891,3.724,63,13.64,50.61
166.77,-0.029,0.225,3.888,3.724,63,13.64,50.59
166.84,-0.098,0.163,3.888,3.722,63,13.64,50.55
166.9,0.071,0.197,3.887,3.721,63,13.64,50.44
166.97,0.136,0.293,3.886,3.721,63,13.64,50.38
167.03,-0.012,0.199,3.886,3.721,63,13.64,50.34
167.1,0.071,0.166,3.886,3.721,63,13.64,50.32
167.16,0.229,0.17380893536121675,3.886,3.721,63,13.64,50.3
167.23,0.272,0.197,3.884,3.721,63,13.63,50.26
167.29,-0.065,0.342,3.883,3.72,63,13.64,50.19
167.35,-0.106,0.344,3.883,3.719,64,13.64,50.12
167.42,-0.105,0.329,3.882,3.719,64,13.64,50.02
167.48,-0.121,0.272,3.881,3.719,64,13.63,49.86
167.55,-0.127,0.225,3.881,3.719,64,13.63,49.75
167.61,-0.127,0.342,3.881,3.719,64,13.63,49.65
167.68,-0.123,0.293,3.879,3.717,64,13.63,49.59
167.74,-0.069,0.251,3.878,3.719,64,13.63,49.52
167.81,-0.124,0.391,3.878,3.716,64,13.64,49.41
167.87,-0.121,0.311,3.877,3.716,64,13.63,49.28
167.94,0.258,0.251,3.876,3.716,64,13.63,49.21
168.0,-0.044,0.249,3.876,3.716,64,13.63,49.13
168.06,0.023,0.163,3.876,3.716,64,13.63,49.06
168.13,0.166,0.161,3.876,3.716,61,13.64,48.99
168.19,0.314,0.21086635832521908,3.873,3.715,61,13.63,48.9
168.26,-0.007,0.288,3.873,3.714,61,13.63,48.82
168.32,-0.114,0.337,3.873,3.714,61,13.63,48.73
168.39,-0.111,0.23,3.872,3.714,61,13.63,48.64
168.45,-0.124,0.199,3.871,3.714,61,13.63,48.49
168.52,-0.139,0.161,3.871,3.714,61,13.63,48.41
168.58,-0.143,0.199,3.871,3.714,61,13.63,48.4
168.65,-0.146,0.199,3.871,3.714,61,13.63,48.39
168.71,-0.133,0.347,3.869,3.712,61,13.63,48.41
168.77,-0.097,0.357,3.868,3.712,61,13.63,48.38
168.84,-0.156,0.326,3.868,3.712,61,13.63,48.37
168.9,0.118,0.228,3.867,3.712,61,13.63,48.39
168.97,-0.009,0.456,3.866,3.712,61,13.63,48.41
169.03,-0.053,0.274,3.866,3.712,61,13.63,48.42
169.1,0.034,0.161,3.866,3.712,59,13.63,48.42
169.16,0.205,0.20631722689075632,3.864,3.709,59,13.63,48.42
169.23,0.229,0.267,3.863,3.709,59,13.63,48.44
169.29,-0.106,0.29,3.863,3.709,59,13.63,48.44
169.35,-0.137,0.24488888888888888,3.863,3.709,59,13.63,48.51
169.42,-0.136,0.1611111111111111,3.862,3.709,59,13.63,48.61
169.48,-0.147,0.116,3.861,3.709,59,13.63,48.7
169.55,-0.152,0.249,3.861,3.708,59,13.63,48.86
169.61,-0.151,0.311,3.861,3.707,59,13.63,49.04
169.68,-0.106,0.119,3.861,3.707,59,13.63,49.25
169.74,-0.129,0.225,3.858,3.707,59,13.63,49.41
169.81,-0.152,0.342,3.858,3.707,59,13.63,49.53
169.87,0.263,0.288,3.858,3.707,59,13.63,49.63
169.94,-0.112,0.254,3.856,3.707,59,13.63,49.78
170.0,-0.005,0.251,3.856,3.704,59,13.63,49.93
170.06,0.111,0.254,3.856,3.704,59,13.63,50.06
170.13,0.3,0.313,3.856,3.704,59,13.63,50.19
170.19,0.088,0.376,3.854,3.704,59,13.63,50.29
170.26,-0.1,0.355,3.853,3.704,63,13.63,50.38
170.32,-0.094,0.251,3.853,3.704,63,13.63,50.47
170.39,-0.098,0.254,3.853,3.704,63,13.63,50.52
170.45,-0.102,0.313,3.853,3.704,63,13.63,50.55
170.52,-0.098,0.251,3.851,3.704,63,13.63,50.65
170.58,-0.036,0.23,3.851,3.702,63,13.63,50.75
170.65,-0.095,0.114,3.851,3.702,63,13.63,50.85
170.71,-0.112,0.254,3.849,3.702,63,13.63,50.88
170.77,0.278,0.246,3.848,3.702,63,13.63,50.86
170.84,-0.028,0.293,3.848,3.702,63,13.63,50.86
170.9,0.045,0.298,3.848,3.702,63,13.63,50.91
170.97,0.18,0.31961436420722134,3.848,3.7,63,13.63,50.94
171.03,0.324,0.355,3.846,3.699,63,13.63,50.95
171.1,0.015,0.399,3.846,3.699,63,13.63,50.92
171.16,-0.088,0.311,3.846,3.699,67,13.63,50.89
171.23,-0.086,0.313,3.844,3.699,67,13.63,50.85
171.29,-0.098,0.274,3.843,3.699,67,13.63,50.74
171.35,-0.104,0.308,3.843,3.698,67,13.63,50.65
171.42,-0.105,0.163,3.843,3.698,67,13.63,50.58
171.48,-0.047,0.202,3.842,3.698,67,13.63,50.56
171.55,-0.106,0.344,3.841,3.697,67,13.63,50.53
