Time,ECG,EMG,foot GSR,hand GSR,HR,marker,RESP
0.0,-0.083,0.124,9.051,19.075,90,12.36,39.98
0.06,-0.079,0.145,9.049,19.088,90,12.36,40.0
0.13,-0.086,0.166,9.046,19.1,90,12.36,39.97
0.19,-0.045,0.207,9.045,19.102,90,12.36,39.87
0.26,-0.109,0.124,9.041,19.102,90,12.36,39.75
0.32,0.077,0.394,9.039,19.105,90,12.36,39.73
0.39,0.003,0.228,9.036,19.105,90,12.36,39.8
0.45,-0.008,0.166,9.035,19.1,90,12.36,39.85
0.52,0.142,0.186,9.034,19.095,90,12.36,39.87
0.58,0.207,0.186,9.031,19.09,90,12.36,39.86
0.65,-0.059,0.228,9.031,19.103,90,12.36,39.88
0.71,-0.072,0.207,9.031,19.129,90,12.36,39.9
0.77,-0.074,0.186,9.029,19.141,90,12.36,39.9
0.84,-0.074,0.186,9.026,19.15,90,12.36,39.81
0.9,-0.045,0.249,9.024,19.154,90,12.36,39.65
0.97,-0.12,0.124,9.022,19.154,90,12.36,39.62
1.03,0.201,0.331,9.021,19.154,90,12.36,39.68
1.1,-0.053,0.166,9.019,19.152,90,12.36,39.75
1.16,0.057,0.249,9.017,19.152,90,12.37,39.75
1.23,0.244,0.186,9.015,19.148,90,12.36,39.74
1.29,0.081,0.228,9.014,19.145,90,12.36,39.75
1.35,-0.062,0.166,9.012,19.144,88,12.36,39.77
1.42,-0.053,0.145,9.011,19.144,88,12.36,39.78
1.48,-0.072,0.186,9.009,19.143,88,12.36,39.8
1.55,-0.055,0.124,9.009,19.14,88,12.36,39.68
1.61,-0.058,0.186,9.007,19.135,88,12.36,39.55
1.68,-0.124,0.186,9.005,19.134,88,12.36,39.55
1.74,0.169,0.331,9.003,19.135,88,12.36,39.71
1.81,-0.007,0.186,9.002,19.137,88,12.36,39.75
1.87,0.098,0.207,8.999,19.137,88,12.36,39.74
1.94,0.255,0.207,8.997,19.141,88,12.36,39.73
2.0,0.021,0.249,8.995,19.147,88,12.36,39.75
2.06,-0.055,0.186,8.994,19.143,86,12.36,39.82
2.13,-0.056,0.124,8.992,19.14,86,12.36,39.89
2.19,-0.074,0.207,8.99,19.135,86,12.36,40.04
2.26,-0.037,0.207,8.989,19.13,86,12.36,40.03
2.32,-0.079,0.186,8.989,19.125,86,12.36,40.02
2.39,0.072,0.269,8.988,19.12,86,12.36,39.91
2.45,-0.018,0.249,8.987,19.115,86,12.36,39.67
2.52,0.025,0.186,8.987,19.106,86,12.36,39.34
2.58,0.164,0.186,8.984,19.095,86,12.36,39.05
2.65,0.216,0.145,8.984,19.084,86,12.36,38.76
2.71,-0.017,0.166,8.982,19.071,86,12.36,38.44
2.77,-0.036,0.186,8.982,19.066,86,12.36,38.1
2.84,-0.042,0.186,8.982,19.058,86,12.36,37.81
2.9,-0.057,0.145,8.979,19.052,86,12.36,37.5
2.97,-0.017,0.186,8.978,19.042,86,12.36,37.08
3.03,-0.074,0.186,8.977,19.034,86,12.36,36.77
3.1,0.175,0.331,8.977,19.026,86,12.36,36.6
3.16,-0.103,0.228,8.974,19.028,86,12.36,36.42
3.23,0.046,0.145,8.973,19.03,86,12.36,36.21
3.29,0.197,0.186,8.972,19.026,86,12.36,35.99
3.35,0.197,0.124,8.97,19.022,86,12.36,35.75
3.42,-0.022,0.186,8.969,19.018,86,12.36,35.56
3.48,-0.043,0.166,8.968,19.015,85,12.36,35.37
3.55,-0.05,0.145,8.967,19.011,85,12.36,35.25
3.61,-0.049,0.186,8.964,19.004,85,12.36,35.06
3.68,-0.034,0.145,8.964,18.998,85,12.36,34.77
3.74,-0.103,0.145,8.962,18.991,85,12.36,34.61
3.81,0.136,0.269,8.958,18.981,85,12.36,34.49
3.87,-0.006,0.186,8.958,18.981,85,12.36,34.49
3.94,0.097,0.186,8.957,18.975,85,12.36,34.4
4.0,0.243,0.207,8.955,18.969,85,12.36,34.3
4.06,0.03,0.207,8.954,18.964,85,12.36,34.27
4.13,-0.055,0.124,8.952,18.957,88,12.36,34.3
4.19,-0.055,0.249,8.952,18.951,88,12.36,34.3
4.26,-0.063,0.186,8.949,18.946,88,12.36,34.3
4.32,-0.044,0.186,8.949,18.944,88,12.36,34.2
4.39,-0.124,0.249,8.947,18.939,88,12.36,34.18
4.45,0.128,0.331,8.947,18.938,88,12.36,34.31
4.52,-0.049,0.166,8.945,18.94,88,12.36,34.57
4.58,0.053,0.166,8.944,18.95,88,12.36,34.82
4.65,0.205,0.228,8.942,18.944,88,12.36,35.12
4.71,0.013,0.166,8.942,18.939,88,12.36,35.57
4.77,-0.1,0.186,8.939,18.934,93,12.36,35.99
4.84,-0.098,0.145,8.939,18.93,93,12.37,36.38
4.9,-0.073,0.186,8.939,18.928,93,12.34,36.76
4.97,0.095,0.269,8.937,18.925,93,12.26,37.02
5.03,0.083,0.352,8.935,18.923,93,12.25,37.34
5.1,-0.178,0.228,8.934,18.921,93,12.26,37.72
5.16,-0.03,0.186,8.934,18.916,109,12.26,38.05
5.23,0.12,0.166,8.937,18.914,109,12.27,38.27
5.29,0.117,0.145,8.93,18.906,109,12.26,38.54
5.35,-0.092,0.166,8.93,18.906,109,12.26,38.54
5.42,-0.097,0.145,8.928,18.905,109,12.26,38.55
5.48,-0.067,0.207,8.924,18.903,109,12.26,38.47
5.55,-0.082,0.228,8.924,18.903,109,12.26,38.21
5.61,-0.125,0.145,8.922,18.905,109,12.25,37.88
5.68,0.121,0.331,8.921,18.906,109,12.25,37.65
5.74,-0.029,0.186,8.92,18.914,109,12.23,37.47
5.81,0.092,0.186,8.917,18.928,109,12.25,37.3
5.87,0.208,0.186,8.916,18.945,109,12.26,37.08
5.94,-0.033,0.124,8.915,18.949,109,12.27,36.87
6.0,-0.078,0.145,8.913,18.954,89,12.26,36.65
6.06,-0.065,0.145,8.912,18.956,89,12.27,36.4
6.13,-0.038,0.249,8.911,18.961,89,12.25,36.17
6.19,-0.113,0.166,8.91,18.964,89,12.25,35.83
6.26,0.176,0.373,8.908,18.965,89,12.25,35.57
6.32,-0.013,0.228,8.907,18.968,89,12.25,35.39
6.39,0.064,0.186,8.906,18.968,89,12.25,35.29
6.45,0.21,0.145,8.906,18.968,89,12.25,35.17
6.52,0.086,0.249,8.905,18.968,89,12.25,35.03
6.58,-0.083,0.207,8.905,18.966,99,12.26,34.93
6.65,-0.074,0.145,8.902,18.968,99,12.27,34.75
6.71,-0.064,0.124,8.902,18.968,99,12.27,34.74
6.77,-0.059,0.166,8.902,18.97,99,12.26,34.57
6.84,-0.139,0.166,8.902,18.962,99,12.26,34.37
6.9,0.187,0.311,8.902,18.955,99,12.26,34.27
6.97,-0.044,0.166,8.9,18.945,99,12.26,34.26
7.03,0.055,0.186,8.9,18.935,99,12.25,34.25
7.1,0.224,0.104,8.9,18.925,99,12.25,34.21
7.16,0.005,0.104,8.898,18.915,99,12.23,34.19
7.23,-0.085,0.166,8.897,18.906,95,12.27,34.2
7.29,-0.078,0.207,8.896,18.9,95,12.29,34.19
7.35,-0.092,0.186,8.895,18.893,95,12.29,34.2
7.42,-0.106,0.228,8.895,18.887,95,12.28,34.1
7.48,-0.064,0.166,8.892,18.879,95,12.28,34.0
7.55,-0.103,0.166,8.892,18.874,95,12.27,34.0
7.61,0.046,0.373,8.892,18.867,95,12.29,34.07
7.68,-0.009,0.249,8.892,18.862,95,12.31,34.11
7.74,-0.011,0.145,8.89,18.855,95,12.31,34.11
7.81,0.129,0.228,8.89,18.849,95,12.29,34.16
7.87,0.185,0.145,8.887,18.844,95,12.29,34.23
7.94,-0.066,0.249,8.887,18.844,95,12.28,34.36
8.0,-0.095,0.145,8.887,18.838,80,12.28,34.56
8.06,-0.102,0.186,8.886,18.829,80,12.28,34.82
8.13,-0.122,0.186,8.885,18.824,80,12.28,35.07
8.19,-0.141,0.145,8.885,18.819,80,12.29,35.28
8.26,-0.148,0.186,8.885,18.814,80,12.29,35.67
8.32,-0.149,0.145,8.882,18.809,80,12.29,36.06
8.39,-0.122,0.166,8.882,18.804,80,12.31,36.5
8.45,-0.121,0.207,8.88,18.796,80,12.31,36.83
8.52,-0.149,0.207,8.88,18.79,80,12.31,37.14
8.58,0.061,0.331,8.877,18.785,80,12.31,37.44
8.65,-0.072,0.166,8.877,18.78,80,12.31,37.73
8.71,0.046,0.166,8.876,18.776,80,12.31,37.96
8.77,0.188,0.186,8.875,18.771,65,12.29,38.1
8.84,-0.041,0.166,8.875,18.767,65,12.31,38.21
8.9,-0.111,0.145,8.872,18.764,65,12.31,38.26
8.97,-0.1,0.145,8.872,18.762,65,12.28,38.2
9.03,-0.108,0.186,8.87,18.76,65,12.29,37.98
9.1,-0.126,0.166,8.87,18.759,65,12.31,37.65
9.16,-0.117,0.186,8.87,18.762,65,12.31,37.44
9.23,-0.076,0.166,8.868,18.765,65,12.32,37.25
9.29,-0.132,0.166,8.867,18.758,65,12.31,37.11
9.35,0.154,0.352,8.867,18.751,65,12.29,36.93
9.42,-0.081,0.166,8.865,18.741,65,12.29,36.78
9.48,0.038,0.207,8.865,18.735,65,12.28,36.61
9.55,0.225,0.207,8.865,18.731,65,12.28,36.43
9.61,0.065,0.166,8.862,18.729,65,12.28,36.28
9.68,-0.089,0.186,8.862,18.727,75,12.28,36.11
9.74,-0.088,0.166,8.86,18.725,75,12.28,35.89
9.81,-0.083,0.145,8.86,18.721,75,12.29,35.72
9.87,-0.096,0.186,8.857,18.725,75,12.31,35.44
9.94,-0.105,0.186,8.857,18.724,75,12.29,35.19
10.0,-0.106,0.145,8.856,18.724,75,12.28,35.04
10.06,-0.099,0.166,8.856,18.72,75,12.28,34.95
10.13,-0.05,0.166,8.855,18.713,75,12.28,34.88
10.19,-0.102,0.186,8.853,18.708,75,12.29,34.82
10.26,0.2,0.435,8.852,18.704,75,12.29,34.83
10.32,-0.079,0.166,8.852,18.703,75,12.29,34.83
10.39,0.039,0.145,8.85,18.699,75,12.28,34.82
10.45,0.227,0.145,8.848,18.688,75,12.28,34.77
10.52,0.138,0.207,8.847,18.683,75,12.28,34.73
10.58,-0.065,0.166,8.846,18.68,65,12.31,34.72
10.65,-0.068,0.166,8.845,18.675,65,12.29,34.69
10.71,-0.07,0.207,8.843,18.67,65,12.29,34.67
10.77,-0.085,0.207,8.842,18.665,65,12.28,34.56
10.84,-0.096,0.166,8.842,18.66,65,12.28,34.4
10.9,-0.099,0.145,8.84,18.655,65,12.29,34.36
10.97,-0.059,0.228,8.84,18.65,65,12.29,34.44
11.03,-0.088,0.186,8.838,18.644,65,12.28,34.6
11.1,0.068,0.373,8.837,18.638,65,12.28,34.68
11.16,-0.001,0.249,8.836,18.633,65,12.28,34.8
11.23,-0.01,0.186,8.835,18.632,65,12.28,35.02
11.29,0.134,0.166,8.835,18.633,65,12.28,35.38
11.35,0.211,0.186,8.832,18.632,65,12.29,35.77
11.42,-0.064,0.186,8.832,18.633,65,12.29,36.11
11.48,-0.107,0.228,8.831,18.633,69,12.29,36.41
11.55,-0.095,0.186,8.83,18.632,69,12.28,36.69
11.61,-0.103,0.186,8.829,18.628,69,12.29,36.94
11.68,-0.115,0.166,8.828,18.623,69,12.29,37.15
11.74,-0.099,0.166,8.825,18.618,69,12.31,37.46
11.81,-0.057,0.207,8.824,18.613,69,12.29,37.82
11.87,-0.11,0.228,8.82,18.608,69,12.28,38.18
11.94,0.163,0.311,8.82,18.608,69,12.28,38.37
12.0,-0.027,0.104,8.82,18.613,69,12.28,38.46
12.06,0.101,0.166,8.819,18.621,69,12.28,38.46
12.13,0.304,0.186,8.818,18.626,69,12.28,38.42
12.19,0.122,0.228,8.815,18.634,69,12.28,38.34
12.26,-0.015,0.186,8.814,18.645,69,12.28,38.2
12.32,-0.006,0.228,8.811,18.658,74,12.28,37.96
12.39,-0.001,0.166,8.81,18.674,74,12.29,37.77
12.45,-0.014,0.207,8.808,18.692,74,12.31,37.49
12.52,0.012,0.186,8.806,18.714,74,12.31,37.24
12.58,0.006,0.228,8.804,18.733,74,12.28,37.01
12.65,0.0,0.249,8.803,18.763,74,12.29,36.83
12.71,0.212,0.311,8.8,18.791,74,12.29,36.67
12.77,0.063,0.186,8.8,18.818,74,12.31,36.49
12.84,0.186,0.186,8.8,18.846,74,12.31,36.3
12.9,0.13666452442159382,0.124,8.798,18.862,74,12.32,36.08
12.97,0.055,0.207,8.798,18.872,74,12.32,35.86
13.03,-0.009,0.145,8.795,18.876,74,12.31,35.66
13.1,-0.002,0.145,8.795,18.872,80,12.31,35.43
13.16,-0.015,0.186,8.795,18.863,80,12.32,35.21
13.23,-0.032,0.124,8.795,18.855,80,12.29,34.86
13.29,-0.015,0.166,8.794,18.847,80,12.29,34.63
13.35,-0.014,0.145,8.793,18.84,80,12.29,34.51
13.42,-0.045,0.207,8.793,18.824,80,12.31,34.45
13.48,0.198,0.373,8.791,18.818,80,12.28,34.4
13.55,0.028,0.166,8.79,18.823,80,12.28,34.32
13.61,0.139,0.166,8.788,18.826,80,12.28,34.28
13.68,0.304,0.207,8.786,18.822,80,12.29,34.3
13.74,0.038,0.166,8.781,18.817,80,12.29,34.32
13.81,-0.037,0.186,8.775,18.812,76,12.29,34.27
13.87,-0.038,0.207,8.766,18.807,76,12.29,34.22
13.94,-0.052,0.207,8.763,18.797,76,12.28,34.23
14.0,-0.069,0.186,8.76,18.786,76,12.29,34.08
14.06,-0.047,0.145,8.759,18.78,76,12.29,33.96
14.13,-0.058,0.166,8.747,18.763,76,12.29,34.11
14.19,-0.07,0.207,8.746,18.762,76,12.29,34.13
14.26,0.136,0.331,8.743,18.753,76,12.31,34.25
14.32,-0.017,0.145,8.742,18.743,76,12.32,34.33
14.39,0.1,0.186,8.739,18.736,76,12.29,34.48
14.45,0.243,0.186,8.737,18.726,76,12.29,34.7
14.52,-0.029,0.166,8.729,18.716,76,12.28,35.01
14.58,-0.104,0.166,8.724,18.705,78,12.28,35.34
14.65,-0.105,0.104,8.719,18.693,78,12.28,35.64
14.71,-0.118,0.29,8.718,18.679,78,12.29,35.93
14.77,-0.095,0.186,8.716,18.669,78,12.29,36.09
14.84,-0.14,0.228,8.714,18.658,78,12.28,36.35
14.9,-0.012,0.249,8.713,18.649,78,12.28,36.66
14.97,-0.066,0.249,8.711,18.639,78,12.28,37.01
15.03,-0.049,0.166,8.708,18.63,78,12.28,37.25
15.1,0.105,0.186,8.707,18.628,78,12.28,37.46
15.16,0.188,0.207,8.706,18.621,78,12.28,37.64
15.23,-0.08,0.186,8.704,18.62,78,12.28,37.82
15.29,-0.111,0.145,8.701,18.614,85,12.28,37.93
15.35,-0.1,0.166,8.698,18.608,85,12.28,37.89
15.42,-0.107,0.166,8.696,18.606,85,12.28,37.68
15.48,-0.068,0.186,8.693,18.601,85,12.28,37.34
15.55,-0.125,0.228,8.691,18.593,85,12.28,37.09
15.61,0.172,0.29,8.689,18.584,85,12.28,36.87
15.68,-0.128,0.228,8.688,18.574,85,12.28,36.66
15.74,-0.005,0.249,8.686,18.566,85,12.28,36.42
15.81,0.165,0.352,8.683,18.565,85,12.28,36.18
15.87,0.16,0.249,8.683,18.565,85,12.28,35.94
15.94,-0.086,0.87,8.683,18.563,85,12.27,35.7
16.0,-0.089,0.684,8.683,18.561,85,12.27,35.47
16.06,-0.088,0.311,8.681,18.561,85,12.26,35.47
16.13,-0.099,0.269,8.679,18.56,85,12.25,35.5
16.19,-0.055,0.29,8.678,18.557,85,12.25,35.26
16.26,-0.113,0.559,8.678,18.56,85,12.25,35.05
16.32,0.16,0.663,8.677,18.553,85,12.26,34.91
16.39,-0.096,0.891,8.676,18.551,85,12.26,34.81
16.45,0.001,0.477,8.674,18.542,85,12.27,34.68
16.52,0.171,0.767,8.673,18.532,85,12.27,34.56
16.58,0.183,0.29,8.673,18.524,85,12.27,34.44
16.65,-0.069,0.994,8.673,18.516,84,12.27,34.35
16.71,-0.078,0.414,8.673,18.514,84,12.27,34.25
16.77,-0.078,0.829,8.673,18.511,84,12.27,34.2
16.84,-0.096,0.829,8.673,18.51,84,12.28,34.11
16.9,-0.081,0.352,8.673,18.509,84,12.28,33.95
16.97,-0.078,0.663,8.673,18.508,84,12.29,33.93
17.03,-0.129,0.311,8.674,18.508,84,12.29,33.96
17.1,0.137,0.725,8.673,18.506,84,12.28,33.99
17.16,-0.038,0.435,8.676,18.503,84,12.29,33.96
17.23,0.07,0.559,8.676,18.501,84,12.31,33.93
17.29,0.23,0.725,8.676,18.499,84,12.31,33.99
17.35,-0.023,0.435,8.676,18.499,84,12.31,34.08
17.42,-0.108,0.725,8.676,18.499,81,12.31,34.22
17.48,-0.109,0.352,8.673,18.494,81,12.31,34.43
17.55,-0.127,0.767,8.673,18.489,81,12.29,34.67
17.61,-0.146,0.518,8.672,18.482,81,12.28,34.78
17.68,-0.104,0.207,8.671,18.475,81,12.28,35.01
17.74,-0.17,0.331,8.671,18.469,81,12.28,35.35
17.81,0.109,0.456,8.671,18.464,81,12.28,35.78
17.87,-0.189,0.767,8.668,18.459,81,12.28,36.17
17.94,-0.043,0.352,8.668,18.453,81,12.28,36.48
18.0,0.137,0.559,8.668,18.449,80,12.29,36.75
18.06,0.072,0.228,8.668,18.444,80,12.31,37.0
18.13,-0.139,0.87,8.667,18.441,80,12.31,37.26
18.19,-0.14,0.311,8.666,18.437,80,12.29,37.55
18.26,-0.133,0.932,8.666,18.434,80,12.29,37.82
18.32,-0.12,0.622,8.666,18.431,80,12.29,37.9
18.39,-0.118,0.684,8.666,18.429,80,12.29,37.89
18.45,-0.166,0.684,8.666,18.426,80,12.29,37.78
18.52,0.112,0.435,8.666,18.424,80,12.29,37.63
18.58,-0.061,0.704,8.666,18.421,80,12.29,37.46
18.65,0.057,0.373,8.663,18.413,80,12.29,37.23
18.71,0.223,0.642,8.662,18.405,80,12.29,37.03
18.77,-0.029,0.932,8.661,18.395,80,12.29,36.83
18.84,-0.109,0.414,8.661,18.382,88,12.29,36.63
18.9,-0.097,0.787,8.661,18.37,88,12.29,36.4
18.97,-0.106,0.787,8.661,18.366,88,12.29,36.2
19.03,-0.121,0.352,8.661,18.366,88,12.28,35.87
19.1,-0.094,0.849,8.661,18.362,88,12.28,35.63
19.16,-0.094,0.849,8.661,18.359,88,12.28,35.46
19.23,-0.122,0.601,8.661,18.355,88,12.28,35.33
19.29,0.126,0.974,8.659,18.352,88,12.28,35.18
19.35,-0.033,0.746,8.658,18.365,88,12.29,35.02
19.42,0.08,0.435,8.658,18.368,88,12.28,34.91
19.48,0.243,0.746,8.658,18.368,88,12.28,34.8
19.55,-0.008,0.725,8.658,18.366,88,12.28,34.72
19.61,-0.082,0.518,8.656,18.362,77,12.28,34.63
19.68,-0.074,0.787,8.656,18.357,77,12.28,34.52
19.74,-0.082,0.477,8.656,18.352,77,12.28,34.41
19.81,-0.098,0.767,8.656,18.349,77,12.29,34.2
19.87,-0.081,0.932,8.654,18.345,77,12.28,34.06
19.94,-0.063,0.331,8.654,18.341,77,12.28,33.97
20.0,-0.123,0.849,8.651,18.337,77,12.28,33.93
20.06,0.152,0.767,8.651,18.341,77,12.28,33.93
20.13,-0.024,0.601,8.649,18.337,77,12.28,33.86
20.19,0.082,0.642,8.649,18.336,77,12.28,33.82
20.26,0.261,0.373,8.647,18.337,77,12.28,33.78
20.32,0.041,0.663,8.646,18.339,77,12.28,33.79
20.39,-0.067,0.394,8.646,18.339,76,12.28,33.78
20.45,-0.057,0.767,8.644,18.336,76,12.28,33.77
20.52,-0.065,0.435,8.642,18.331,76,12.28,33.82
20.58,-0.081,0.249,8.641,18.323,76,12.29,33.75
20.65,-0.078,0.725,8.641,18.316,76,12.29,33.75
20.71,-0.039,0.331,8.641,18.303,76,12.29,33.88
20.77,-0.102,0.849,8.639,18.293,76,12.29,34.15
20.84,0.179,0.539,8.639,18.283,76,12.29,34.44
20.9,-0.081,0.373,8.639,18.28,76,12.29,34.71
20.97,0.035,0.539,8.636,18.275,76,12.29,35.02
21.03,0.217,0.539,8.636,18.273,76,12.29,35.31
21.1,0.125,0.352,8.635,18.273,76,12.29,35.61
21.16,-0.074,0.808,8.634,18.272,75,12.29,35.92
21.23,-0.079,0.435,8.634,18.268,75,12.29,36.19
21.29,-0.082,0.87,8.634,18.279,75,12.28,36.43
21.35,-0.096,0.414,8.632,18.284,75,12.28,36.56
21.42,-0.068,0.891,8.631,18.29,75,12.28,36.67
21.48,-0.091,0.373,8.629,18.294,75,12.28,36.88
21.55,-0.05,0.725,8.629,18.296,75,12.28,37.09
21.61,0.069,0.787,8.627,18.296,75,12.28,37.23
21.68,-0.007,0.435,8.626,18.302,75,12.28,37.22
21.74,0.126,0.787,8.625,18.311,75,12.28,37.1
21.81,0.245,0.539,8.624,18.314,75,12.28,36.92
21.87,-0.022,0.601,8.624,18.311,75,12.28,36.75
21.94,-0.071,0.746,8.624,18.311,80,12.28,36.6
22.0,-0.063,0.622,8.624,18.312,80,12.28,36.42
22.06,-0.074,0.684,8.624,18.309,80,12.28,36.19
22.13,-0.081,0.622,8.621,18.306,80,12.28,35.87
22.19,-0.036,0.746,8.621,18.304,80,12.28,35.64
22.26,-0.096,0.373,8.621,18.3,80,12.29,35.45
22.32,0.198,0.684,8.619,18.296,80,12.28,35.3
22.39,-0.079,0.539,8.619,18.292,80,12.28,35.16
22.45,0.043,0.725,8.619,18.29,80,12.28,35.02
22.52,0.228,0.58,8.619,18.286,80,12.28,34.9
22.58,0.151,0.518,8.616,18.28,80,12.28,34.83
22.65,-0.057,0.829,8.616,18.276,80,12.28,34.75
22.71,-0.054,0.808,8.614,18.277,80,12.28,34.63
22.77,-0.058,0.373,8.614,18.282,80,12.28,34.51
22.84,-0.074,0.829,8.614,18.286,80,12.28,34.33
22.9,-0.049,0.352,8.611,18.282,80,12.28,34.12
22.97,-0.067,0.891,8.609,18.28,80,12.28,34.02
23.03,-0.065,0.373,8.606,18.275,80,12.28,33.98
23.1,0.126,0.663,8.602,18.272,80,12.28,33.97
23.16,0.098,0.269,8.6,18.272,80,12.28,33.94
23.23,0.165,0.269,8.599,18.276,80,12.28,33.95
23.29,0.26,0.207,8.597,18.288,80,12.29,33.91
23.35,-0.003,0.414,8.599,18.301,80,12.29,33.84
23.42,-0.067,0.166,8.596,18.307,80,12.31,33.84
23.48,-0.062,0.186,8.591,18.326,80,12.28,33.81
23.55,-0.079,0.311,8.591,18.326,80,12.28,33.8
23.61,-0.071,0.186,8.585,18.327,80,12.27,33.62
23.68,-0.071,0.249,8.584,18.322,80,12.28,33.57
23.74,-0.131,0.186,8.582,18.325,80,12.28,33.65
23.81,0.124,0.311,8.579,18.34,80,12.28,33.94
23.87,-0.049,0.145,8.572,18.35,80,12.29,34.28
23.94,0.059,0.166,8.568,18.352,80,12.29,34.71
24.0,0.224,0.186,8.565,18.352,80,12.29,35.12
24.06,-0.022,0.186,8.565,18.351,80,12.29,35.45
24.13,-0.116,0.145,8.573,18.352,83,12.29,35.72
24.19,-0.11,0.207,8.579,18.352,83,12.29,36.08
24.26,-0.103,0.166,8.577,18.34,83,12.31,36.42
24.32,-0.096,0.145,8.572,18.33,83,12.29,36.61
24.39,-0.159,0.186,8.568,18.311,83,12.31,36.82
24.45,0.073,0.29,8.561,18.288,83,12.31,37.11
24.52,-0.07,0.124,8.551,18.288,83,12.29,37.43
24.58,0.057,0.124,8.545,18.296,83,12.29,37.6
24.65,0.245,0.124,8.542,18.297,83,12.29,37.65
24.71,0.023,0.104,8.54,18.295,83,12.29,37.65
24.77,-0.085,0.145,8.539,18.29,91,12.29,37.56
24.84,-0.074,0.145,8.537,18.286,91,12.29,37.33
24.9,-0.079,0.145,8.535,18.282,91,12.29,37.11
24.97,-0.037,0.166,8.534,18.278,91,12.31,36.8
25.03,-0.103,0.124,8.534,18.273,91,12.29,36.55
25.1,0.205,0.331,8.532,18.265,91,12.29,36.35
25.16,-0.108,0.207,8.53,18.26,91,12.31,36.18
25.23,0.029,0.145,8.529,18.257,91,12.29,35.99
25.29,0.209,0.124,8.529,18.253,91,12.29,35.74
25.35,0.171,0.166,8.527,18.25,91,12.29,35.42
25.42,-0.049,0.124,8.524,18.243,91,12.29,35.14
25.48,-0.052,0.186,8.52,18.239,89,12.29,34.96
25.55,-0.059,0.145,8.515,18.237,89,12.29,34.85
25.61,-0.034,0.145,8.513,18.237,89,12.29,34.67
25.68,-0.069,0.145,8.512,18.234,89,12.29,34.39
25.74,-0.045,0.207,8.51,18.234,89,12.29,34.26
25.81,0.141,0.394,8.51,18.234,89,12.29,34.23
25.87,0.002,0.124,8.514,18.237,89,12.29,34.24
25.94,0.129,0.166,8.513,18.24,89,12.31,34.18
26.0,0.253,0.104,8.508,18.245,89,12.31,34.14
26.06,-0.015,0.186,8.505,18.253,89,12.31,34.14
26.13,-0.064,0.124,8.5,18.261,89,12.31,34.14
26.19,-0.059,0.145,8.497,18.271,89,12.31,34.1
26.26,-0.074,0.145,8.493,18.281,89,12.31,34.07
26.32,-0.035,0.124,8.49,18.291,89,12.31,33.95
26.39,-0.096,0.145,8.487,18.301,89,12.31,33.87
26.45,0.162,0.352,8.484,18.311,89,12.31,33.88
26.52,-0.072,0.228,8.484,18.321,89,12.31,34.02
26.58,0.005,0.249,8.484,18.331,89,12.31,34.18
26.65,0.162,0.145,8.484,18.34,89,12.31,34.3
26.71,0.179,0.124,8.482,18.348,89,12.31,34.45
26.77,-0.068,0.166,8.48,18.361,89,12.31,34.7
26.84,-0.089,0.166,8.478,18.37,86,12.31,34.97
26.9,-0.093,0.145,8.477,18.38,86,12.31,35.31
26.97,-0.084,0.166,8.475,18.387,86,12.31,35.56
27.03,-0.1,0.145,8.475,18.382,86,12.31,35.74
27.1,-0.144,0.228,8.472,18.382,86,12.31,36.05
27.16,0.086,0.331,8.471,18.387,86,12.29,36.37
27.23,-0.06,0.228,8.47,18.394,86,12.29,36.76
27.29,0.062,0.331,8.468,18.397,86,12.29,37.02
27.35,0.218,0.145,8.467,18.398,86,12.31,37.27
27.42,-0.017,0.207,8.466,18.396,86,12.29,37.5
27.48,-0.095,0.166,8.465,18.394,89,12.29,37.74
27.55,-0.09,0.249,8.465,18.392,89,12.29,37.89
27.61,-0.103,0.124,8.465,18.387,89,12.29,37.88
27.68,-0.066,0.559,8.465,18.384,89,12.29,37.63
27.74,-0.137,0.29,8.462,18.382,89,12.29,37.44
27.81,0.164,0.456,8.462,18.377,89,12.28,37.21
27.87,-0.15,0.331,8.461,18.368,89,12.29,36.97
27.94,-0.003,0.124,8.46,18.358,89,12.29,36.71
28.0,0.169,0.166,8.46,18.348,89,12.29,36.51
28.06,0.108,0.145,8.457,18.338,89,12.29,36.31
28.13,-0.102,0.29,8.457,18.328,88,12.29,36.11
28.19,-0.103,0.166,8.457,18.318,88,12.29,35.93
28.26,-0.109,0.269,8.455,18.308,88,12.29,35.78
28.32,-0.122,0.166,8.453,18.298,88,12.29,35.48
28.39,-0.078,0.186,8.452,18.288,88,12.29,35.23
28.45,-0.144,0.166,8.451,18.28,88,12.29,35.13
28.52,0.164,0.435,8.45,18.275,88,12.29,35.08
28.58,-0.134,0.186,8.447,18.266,88,12.28,35.04
28.65,0.003,0.269,8.447,18.26,88,12.27,35.0
28.71,0.186,0.124,8.447,18.255,88,12.28,34.97
28.77,0.124,0.124,8.445,18.249,88,12.29,34.93
28.84,-0.072,0.104,8.445,18.247,84,12.29,34.87
28.9,-0.067,0.145,8.445,18.247,84,12.29,34.81
28.97,-0.072,0.124,8.442,18.249,84,12.29,34.81
29.03,-0.084,0.124,8.442,18.258,84,12.29,34.7
29.1,-0.087,0.145,8.442,18.27,84,12.29,34.58
29.16,-0.1,0.124,8.441,18.289,84,12.29,34.54
29.23,0.196,0.311,8.44,18.309,84,12.29,34.58
29.29,-0.097,0.207,8.44,18.332,84,12.29,34.64
29.35,0.023,0.104,8.438,18.359,84,12.28,34.61
29.42,0.181,0.145,8.437,18.418,84,12.28,34.69
29.48,0.184,0.166,8.437,18.422,84,12.28,34.71
29.55,-0.054,0.104,8.437,18.445,84,12.29,34.83
29.61,-0.071,0.124,8.437,18.465,83,12.31,34.97
29.68,-0.074,0.166,8.438,18.486,83,12.31,35.17
29.74,-0.076,0.124,8.437,18.508,83,12.31,35.36
29.81,-0.07,0.166,8.436,18.526,83,12.29,35.53
29.87,-0.146,0.166,8.435,18.537,83,12.28,35.83
29.94,0.107,0.29,8.435,18.546,83,12.28,36.16
30.0,-0.079,0.104,8.435,18.55,83,12.29,36.51
30.06,0.031,0.104,8.435,18.55,83,12.29,36.81
30.13,0.199,0.104,8.437,18.553,83,12.31,37.12
30.19,-0.002,0.124,8.437,18.557,83,12.31,37.44
30.26,-0.118,0.124,8.437,18.557,88,12.31,37.77
30.32,-0.107,0.124,8.437,18.557,88,12.29,38.06
30.39,-0.105,0.104,8.44,18.553,88,12.29,38.28
30.45,-0.078,0.124,8.44,18.546,88,12.31,38.32
30.52,-0.147,0.622,8.442,18.537,88,12.32,38.27
30.58,0.151,0.311,8.442,18.53,88,12.32,38.11
30.65,-0.12,0.145,8.445,18.52,88,12.33,38.0
30.71,0.011,0.104,8.445,18.51,88,12.33,37.84
30.77,0.195,0.166,8.445,18.501,88,12.31,37.59
30.84,0.08,0.145,8.447,18.492,88,12.31,37.32
30.9,-0.082,0.124,8.447,18.484,90,12.32,37.26
30.97,-0.081,0.124,8.447,18.476,90,12.32,37.06
31.03,-0.082,0.124,8.447,18.465,90,12.31,36.77
31.1,-0.083,0.373,8.45,18.452,90,12.28,36.33
31.16,-0.056,0.104,8.447,18.443,90,12.29,36.0
31.23,-0.122,0.124,8.447,18.424,90,12.29,35.73
31.29,0.175,0.311,8.447,18.422,90,12.29,35.7
31.35,-0.045,0.124,8.447,18.412,90,12.29,35.57
31.42,0.057,0.124,8.447,18.403,90,12.28,35.65
31.48,0.07,0.124,8.447,18.393,90,12.28,36.17
31.55,0.015,0.104,8.447,18.383,85,12.28,36.17
31.61,-0.06,0.145,8.447,18.374,85,12.28,36.12
31.68,-0.047,0.104,8.447,18.363,85,12.28,35.93
31.74,-0.055,0.124,8.447,18.356,85,12.28,35.71
31.81,-0.043,0.124,8.447,18.34,85,12.28,35.08
31.87,-0.039,0.186,8.447,18.34,85,12.28,35.04
31.94,-0.105,0.166,8.447,18.332,85,12.28,34.91
32.0,0.191,0.331,8.446,18.325,85,12.28,34.92
32.06,-0.004,0.104,8.443,18.318,85,12.28,34.98
32.13,0.1,0.104,8.441,18.311,85,12.28,34.95
32.19,0.276,0.145,8.438,18.305,85,12.28,34.88
32.26,0.045,0.124,8.437,18.298,85,12.27,34.81
32.32,-0.054,0.145,8.437,18.292,85,12.28,34.81
32.39,-0.046,0.145,8.435,18.287,85,12.28,34.81
32.45,-0.062,0.124,8.433,18.282,85,12.28,34.8
32.52,-0.084,0.124,8.431,18.277,85,12.28,34.66
32.58,-0.038,0.124,8.428,18.273,85,12.28,34.61
32.65,-0.105,0.145,8.426,18.265,85,12.28,34.69
32.71,0.18,0.311,8.423,18.26,85,12.28,34.91
32.77,-0.126,0.186,8.422,18.255,85,12.28,35.15
32.84,-0.007,0.104,8.42,18.25,85,12.28,35.4
32.9,0.152,0.124,8.417,18.243,85,12.28,35.69
32.97,0.128,0.124,8.416,18.238,85,12.28,36.03
33.03,-0.104,0.145,8.415,18.233,81,12.27,36.4
33.1,-0.12,0.104,8.413,18.228,81,12.27,36.7
33.16,-0.125,0.124,8.412,18.223,81,12.27,37.0
33.23,-0.129,0.124,8.412,18.216,81,12.27,37.19
33.29,-0.117,0.166,8.41,18.21,81,12.27,37.41
33.35,-0.184,0.166,8.408,18.205,81,12.27,37.68
33.42,0.071,0.269,8.407,18.2,81,12.27,37.99
33.48,-0.11,0.124,8.405,18.198,81,12.27,38.18
33.55,0.009,0.124,8.405,18.193,81,12.27,38.22
33.61,0.19,0.145,8.402,18.188,87,12.27,38.09
33.68,-0.003,0.145,8.401,18.186,87,12.27,37.89
33.74,-0.112,0.124,8.4,18.182,87,12.27,37.7
33.81,-0.103,0.124,8.4,18.178,87,12.27,37.48
33.87,-0.105,0.124,8.398,18.176,87,12.27,37.27
33.94,-0.118,0.124,8.397,18.172,87,12.27,36.94
34.0,-0.069,0.166,8.397,18.17,87,12.27,36.62
34.06,-0.127,0.145,8.396,18.166,87,12.27,36.37
34.13,0.183,0.352,8.395,18.163,87,12.27,36.17
34.19,-0.132,0.186,8.395,18.161,87,12.28,35.97
34.26,-0.001,0.186,8.395,18.157,87,12.28,35.75
34.32,0.17,0.124,8.395,18.153,87,12.28,35.55
34.39,0.146,0.166,8.393,18.148,87,12.28,35.36
34.45,-0.079,0.166,8.392,18.146,81,12.27,35.19
34.52,-0.079,0.145,8.392,18.143,81,12.28,35.06
34.58,-0.08,0.145,8.392,18.141,81,12.28,34.97
34.65,-0.096,0.166,8.39,18.137,81,12.28,34.81
34.71,-0.082,0.124,8.389,18.133,81,12.28,34.59
34.77,-0.062,0.166,8.388,18.131,81,12.28,34.53
34.84,-0.127,0.145,8.385,18.128,81,12.28,34.52
34.9,0.159,0.311,8.384,18.125,81,12.28,34.53
34.97,-0.036,0.145,8.383,18.123,81,12.28,34.52
35.03,0.065,0.124,8.383,18.118,81,12.29,34.52
35.1,0.25,0.124,8.383,18.116,81,12.28,34.55
35.16,0.05,0.124,8.38,18.112,81,12.27,34.55
35.23,-0.069,0.124,8.38,18.11,80,12.27,34.52
35.29,-0.058,0.145,8.38,18.106,80,12.27,34.49
35.35,-0.067,0.124,8.38,18.103,80,12.27,34.49
35.42,-0.085,0.145,8.379,18.101,80,12.27,34.36
35.48,-0.064,0.145,8.378,18.096,80,12.28,34.27
35.55,-0.042,0.145,8.378,18.093,80,12.28,34.26
35.61,-0.107,0.145,8.376,18.089,80,12.28,34.3
35.68,0.17,0.352,8.375,18.086,80,12.28,34.33
35.74,-0.02,0.124,8.375,18.084,80,12.28,34.35
35.81,0.076,0.145,8.375,18.08,80,12.29,34.41
35.87,0.25,0.124,8.375,18.076,80,12.29,34.52
35.94,0.051,0.104,8.373,18.074,80,12.29,34.68
36.0,-0.073,0.145,8.374,18.071,77,12.29,34.91
36.06,-0.064,0.124,8.375,18.069,77,12.29,35.16
36.13,-0.079,0.145,8.375,18.066,77,12.29,35.45
36.19,-0.098,0.145,8.375,18.064,77,12.31,35.56
36.26,-0.061,0.166,8.375,18.061,77,12.31,35.78
36.32,-0.097,0.124,8.375,18.058,77,12.29,36.07
36.39,0.003,0.228,8.374,18.055,77,12.31,36.38
36.45,0.003,0.249,8.373,18.054,77,12.31,36.62
36.52,-0.006,0.104,8.373,18.051,77,12.29,36.82
36.58,0.131,0.124,8.373,18.049,77,12.28,37.02
36.65,0.228,0.145,8.373,18.046,77,12.28,37.2
36.71,-0.026,0.145,8.373,18.045,77,12.28,37.34
36.77,-0.06,0.104,8.373,18.043,80,12.28,37.41
36.84,-0.046,0.124,8.373,18.041,80,12.28,37.39
36.9,-0.062,0.166,8.371,18.04,80,12.28,37.22
36.97,-0.059,0.124,8.37,18.039,80,12.28,36.91
37.03,-0.028,0.145,8.37,18.036,80,12.28,36.67
37.1,-0.092,0.186,8.37,18.033,80,12.28,36.5
37.16,0.19,0.373,8.369,18.031,80,12.28,36.34
37.23,-0.018,0.124,8.368,18.03,80,12.28,36.14
37.29,0.086,0.186,8.368,18.028,80,12.29,35.92
37.35,0.267,0.124,8.368,18.025,80,12.28,35.73
37.42,0.094,0.186,8.368,18.024,80,12.28,35.54
37.48,-0.046,0.145,8.368,18.021,80,12.28,35.44
37.55,-0.037,0.124,8.368,18.019,80,12.28,35.44
37.61,-0.048,0.124,8.368,18.018,80,12.29,35.44
37.68,-0.058,0.124,8.368,18.014,80,12.28,35.26
37.74,-0.019,0.145,8.368,18.011,80,12.26,35.09
37.81,-0.049,0.145,8.368,18.009,80,12.26,35.12
37.87,0.034,0.311,8.368,18.006,80,12.27,35.26
37.94,0.096,0.29,8.368,18.003,80,12.28,35.29
38.0,0.037,0.145,8.368,18.002,80,12.28,35.19
38.06,0.175,0.145,8.368,17.999,80,12.27,35.09
38.13,0.279,0.124,8.368,17.997,80,12.28,35.03
38.19,0.017,0.186,8.365,17.996,80,12.28,34.96
38.26,-0.02,0.104,8.365,17.993,80,12.28,34.88
38.32,-0.015,0.145,8.365,17.991,80,12.28,34.78
38.39,-0.031,0.104,8.363,17.988,80,12.29,34.7
38.45,-0.035,0.186,8.363,17.986,80,12.29,34.49
38.52,0.006,0.124,8.359,17.982,80,12.29,34.36
38.58,-0.057,0.186,8.359,17.981,80,12.29,34.32
38.65,0.218,0.311,8.356,17.978,80,12.28,34.38
38.71,-0.033,0.207,8.355,17.977,80,12.28,34.45
38.77,0.08,0.124,8.355,17.974,80,12.28,34.52
38.84,0.254,0.166,8.355,17.971,80,12.29,34.62
38.9,0.157,0.145,8.354,17.968,80,12.29,34.81
38.97,-0.038,0.166,8.353,17.966,80,12.29,35.06
39.03,-0.042,0.145,8.35,17.963,80,12.29,35.3
39.1,-0.052,0.166,8.35,17.962,80,12.29,35.56
39.16,-0.066,0.186,8.349,17.958,80,12.29,35.69
39.23,-0.036,0.124,8.35,17.957,80,12.29,35.86
39.29,-0.105,0.166,8.348,17.953,80,12.28,36.13
39.35,0.126,0.29,8.348,17.951,80,12.28,36.45
39.42,-0.069,0.186,8.346,17.949,80,12.28,36.73
39.48,0.057,0.124,8.345,17.948,80,12.27,36.93
39.55,0.239,0.145,8.344,17.946,80,12.27,37.14
39.61,0.097,0.145,8.343,17.943,80,12.28,37.36
39.68,-0.075,0.124,8.343,17.939,85,12.28,37.56
39.74,-0.067,0.166,8.34,17.938,85,12.28,37.76
39.81,-0.071,0.124,8.338,17.936,85,12.28,37.96
39.87,-0.034,0.186,8.334,17.933,85,12.28,37.99
39.94,-0.086,0.145,8.33,17.931,85,12.28,38.0
40.0,0.198,0.29,8.328,17.927,85,12.27,38.0
40.06,-0.098,0.228,8.325,17.926,85,12.27,37.93
40.13,0.041,0.124,8.324,17.927,85,12.27,37.75
40.19,0.208,0.145,8.321,17.928,85,12.28,37.51
40.26,0.206,0.145,8.316,17.926,85,12.27,37.28
40.32,-0.026,0.145,8.314,17.922,85,12.27,37.09
40.39,-0.027,0.145,8.31,17.92,89,12.27,36.86
40.45,-0.021,0.124,8.309,17.917,89,12.27,36.62
40.52,-0.024,0.166,8.306,17.914,89,12.27,36.31
40.58,0.014,0.186,8.305,17.912,89,12.27,35.94
40.65,-0.051,0.166,8.304,17.907,89,12.27,35.67
40.71,0.231,0.394,8.303,17.905,89,12.27,35.5
40.77,-0.001,0.186,8.303,17.902,89,12.27,35.37
40.84,0.104,0.145,8.302,17.901,89,12.27,35.21
40.9,0.289,0.145,8.301,17.899,89,12.27,35.05
40.97,0.151,0.186,8.299,17.895,89,12.27,34.88
41.03,-0.022,0.186,8.298,17.892,86,12.27,34.75
41.1,-0.015,0.124,8.296,17.89,86,12.27,34.61
41.16,-0.026,0.186,8.293,17.889,86,12.27,34.52
41.23,-0.028,0.124,8.293,17.886,86,12.28,34.33
41.29,0.0,0.145,8.291,17.885,86,12.28,34.13
41.35,-0.07,0.166,8.289,17.882,86,12.28,34.05
41.42,0.205,0.394,8.288,17.88,86,12.28,34.04
41.48,0.008,0.186,8.288,17.879,86,12.28,34.03
41.55,0.114,0.145,8.287,17.877,86,12.28,33.99
41.61,0.301,0.166,8.286,17.875,86,12.28,33.97
41.68,0.128,0.145,8.286,17.872,86,12.28,33.95
41.74,-0.017,0.145,8.283,17.871,85,12.28,33.97
41.81,-0.012,0.145,8.283,17.869,85,12.28,33.95
41.87,-0.026,0.186,8.281,17.866,85,12.28,34.01
41.94,-0.033,0.166,8.281,17.865,85,12.27,33.99
42.0,-0.006,0.166,8.279,17.862,85,12.28,34.04
42.06,-0.077,0.186,8.278,17.86,85,12.27,34.28
42.13,0.189,0.331,8.278,17.859,85,12.27,34.68
42.19,-0.026,0.186,8.277,17.856,85,12.27,35.03
42.26,0.074,0.124,8.276,17.854,85,12.28,35.34
42.32,0.248,0.145,8.274,17.852,85,12.28,35.68
42.39,0.076,0.166,8.273,17.851,85,12.28,36.02
42.45,-0.074,0.145,8.273,17.85,84,12.28,36.33
42.52,-0.075,0.166,8.273,17.849,84,12.28,36.66
42.58,-0.072,0.166,8.271,17.846,84,12.29,37.02
42.65,-0.068,0.124,8.269,17.845,84,12.29,37.22
42.71,-0.142,0.186,8.268,17.842,84,12.28,37.43
42.77,0.096,0.269,8.268,17.841,84,12.28,37.68
42.84,-0.07,0.145,8.266,17.839,84,12.28,38.0
42.9,0.054,0.145,8.264,17.836,84,12.28,38.22
42.97,0.23,0.145,8.263,17.834,84,12.28,38.33
43.03,0.023,0.124,8.261,17.833,84,12.28,38.33
43.1,-0.093,0.145,8.261,17.83,94,12.28,38.23
43.16,-0.078,0.145,8.258,17.829,94,12.28,38.05
43.23,-0.078,0.186,8.258,17.829,94,12.29,37.84
43.29,-0.048,0.186,8.258,17.828,94,12.29,37.52
43.35,-0.12,0.186,8.256,17.827,94,12.28,37.24
43.42,0.168,0.352,8.256,17.827,94,12.28,37.02
43.48,-0.067,0.228,8.254,17.828,94,12.28,36.86
43.55,0.045,0.145,8.253,17.834,94,12.28,36.73
43.61,0.238,0.166,8.252,17.845,94,12.28,36.56
43.68,0.081,0.145,8.251,17.862,94,12.28,36.37
43.74,-0.076,0.186,8.251,17.891,90,12.28,36.12
43.81,-0.066,0.124,8.248,17.93,90,12.29,35.84
43.87,-0.065,0.145,8.248,17.979,90,12.31,35.6
43.94,-0.028,0.145,8.246,18.039,90,12.31,35.25
44.0,-0.102,0.166,8.246,18.111,90,12.31,34.94
44.06,0.203,0.477,8.246,18.189,90,12.32,34.75
44.13,-0.078,0.186,8.244,18.274,90,12.32,34.66
44.19,0.031,0.166,8.243,18.361,90,12.32,34.6
44.26,0.215,0.166,8.243,18.453,90,12.32,34.52
44.32,0.123,0.145,8.244,18.542,90,12.29,34.45
44.39,-0.08,0.124,8.247,18.628,91,12.28,34.41
44.45,-0.074,0.186,8.251,18.709,91,12.28,34.37
44.52,-0.077,0.166,8.255,18.781,91,12.28,34.32
44.58,-0.043,0.207,8.263,18.846,91,12.28,34.2
44.65,-0.097,0.145,8.273,18.904,91,12.28,34.05
44.71,0.059,0.311,8.287,18.954,91,12.28,34.03
44.77,0.0,0.249,8.3,18.996,91,12.28,34.07
44.84,0.0,0.166,8.318,19.031,91,12.28,34.1
44.9,0.146,0.166,8.339,19.06,91,12.27,34.05
44.97,0.2,0.166,8.361,19.082,91,12.27,33.9
45.03,-0.068,0.124,8.389,19.096,90,12.27,33.74
45.1,-0.093,0.166,8.416,19.105,90,12.27,33.8
45.16,-0.097,0.145,8.446,19.107,90,12.27,34.02
45.23,-0.116,0.124,8.477,19.101,90,12.27,34.21
45.29,-0.081,0.166,8.509,19.091,90,12.27,34.25
45.35,-0.127,0.145,8.541,19.073,90,12.27,34.52
45.42,0.0,0.352,8.575,19.048,90,12.27,34.91
45.48,-0.045,0.228,8.607,19.023,90,12.27,35.3
45.55,-0.045,0.145,8.641,18.994,90,12.27,35.61
45.61,0.098,0.186,8.67,18.967,84,12.27,35.9
45.68,0.163,0.145,8.702,18.936,84,12.27,36.22
45.74,-0.101,0.166,8.73,18.902,84,12.27,36.55
45.81,-0.133,0.166,8.756,18.87,84,12.27,36.84
45.87,-0.124,0.145,8.781,18.837,84,12.27,37.11
45.94,-0.139,0.166,8.806,18.804,84,12.27,37.28
46.0,-0.134,0.124,8.829,18.773,84,12.27,37.39
46.06,-0.103,0.166,8.85,18.742,84,12.27,37.59
46.13,-0.16,0.186,8.868,18.711,84,12.27,37.79
46.19,0.104,0.249,8.886,18.681,84,12.27,37.94
46.26,-0.098,0.186,8.903,18.653,84,12.27,37.92
46.32,0.025,0.124,8.918,18.626,84,12.27,37.8
46.39,0.215,0.124,8.93,18.598,84,12.27,37.61
46.45,0.047,0.207,8.941,18.573,84,12.27,37.43
46.52,-0.095,0.145,8.951,18.551,80,12.27,37.26
46.58,-0.084,0.124,8.959,18.528,80,12.27,37.09
46.65,-0.084,0.166,8.968,18.505,80,12.27,36.92
46.71,-0.099,0.186,8.975,18.485,80,12.27,36.61
46.77,-0.104,0.145,8.98,18.465,80,12.27,36.34
46.84,-0.102,0.186,8.984,18.446,80,12.27,36.17
46.9,-0.1,0.145,8.987,18.428,80,12.27,36.05
46.97,-0.06,0.145,8.987,18.412,80,12.27,35.92
47.03,-0.076,0.166,8.987,18.396,80,12.27,35.79
47.1,-0.026,0.228,8.987,18.378,80,12.27,35.77
47.16,0.125,0.331,8.984,18.362,80,12.27,35.68
47.23,0.006,0.166,8.982,18.35,80,12.27,35.53
47.29,0.135,0.145,8.978,18.335,80,12.27,35.39
47.35,0.276,0.166,8.973,18.322,80,12.28,35.31
47.42,0.002,0.166,8.968,18.31,80,12.28,35.26
47.48,-0.058,0.124,8.961,18.296,63,12.28,35.23
47.55,-0.052,0.145,8.955,18.285,63,12.28,35.18
47.61,-0.065,0.145,8.948,18.274,63,12.28,35.09
47.68,-0.08,0.145,8.941,18.264,63,12.27,34.88
47.74,-0.088,0.145,8.935,18.254,63,12.27,34.78
47.81,-0.087,0.145,8.926,18.244,63,12.27,34.77
47.87,-0.086,0.104,8.919,18.236,63,12.27,34.84
47.94,-0.085,0.124,8.909,18.229,63,12.27,34.85
48.0,-0.038,0.228,8.899,18.221,63,12.27,34.79
48.06,-0.072,0.186,8.888,18.213,63,12.27,34.77
48.13,0.205,0.311,8.877,18.204,63,12.28,34.78
48.19,-0.067,0.269,8.868,18.196,63,12.28,34.81
48.26,0.031,0.186,8.859,18.189,63,12.27,34.78
48.32,0.189,0.124,8.849,18.182,63,12.27,34.77
48.39,0.233,0.166,8.842,18.173,63,12.27,34.8
48.45,-0.044,0.145,8.833,18.167,63,12.28,34.91
48.52,-0.074,0.145,8.825,18.159,59,12.28,35.04
48.58,-0.075,0.186,8.819,18.152,59,12.28,35.21
48.65,-0.091,0.166,8.811,18.146,59,12.27,35.27
48.71,-0.107,0.166,8.802,18.141,59,12.27,35.32
48.77,-0.114,0.166,8.794,18.133,59,12.28,35.58
48.84,-0.118,0.145,8.785,18.126,59,12.31,35.9
48.9,-0.111,0.166,8.776,18.121,59,12.28,36.2
48.97,-0.088,0.186,8.769,18.113,59,12.28,36.42
49.03,-0.127,0.269,8.76,18.107,59,12.27,36.66
49.1,0.142,0.29,8.752,18.101,59,12.26,36.91
49.16,-0.069,0.186,8.744,18.096,59,12.26,37.13
49.23,0.047,0.145,8.737,18.09,59,12.27,37.36
49.29,0.246,0.207,8.73,18.084,59,12.27,37.58
49.35,0.086,0.145,8.723,18.079,59,12.27,37.79
49.42,-0.086,0.166,8.715,18.074,63,12.27,37.94
49.48,-0.084,0.186,8.709,18.069,63,12.27,38.05
49.55,-0.073,0.145,8.702,18.064,63,12.28,38.08
49.61,-0.085,0.166,8.694,18.059,63,12.28,37.83
49.68,-0.087,0.166,8.689,18.054,63,12.27,37.52
49.74,-0.087,0.166,8.684,18.051,63,12.27,37.3
49.81,-0.078,0.207,8.677,18.046,63,12.27,37.2
49.87,-0.034,0.145,8.672,18.041,63,12.28,37.12
49.94,-0.08,0.186,8.667,18.039,63,12.28,37.0
50.0,0.214,0.435,8.662,18.034,63,12.27,36.82
50.06,-0.042,0.166,8.657,18.03,63,12.27,36.67
50.13,0.077,0.249,8.652,18.026,63,12.28,36.51
50.19,0.274,0.145,8.647,18.021,63,12.28,36.39
50.26,0.167,0.145,8.644,18.019,63,12.28,36.32
50.32,-0.043,0.207,8.64,18.015,65,12.28,36.25
50.39,-0.042,0.166,8.636,18.011,65,12.28,36.15
50.45,-0.035,0.186,8.632,18.007,65,12.28,36.08
50.52,-0.049,0.124,8.627,18.004,65,12.28,35.87
50.58,-0.057,0.124,8.625,18.001,65,12.28,35.66
50.65,-0.058,0.166,8.62,17.996,65,12.28,35.53
50.71,-0.039,0.124,8.615,17.992,65,12.28,35.44
50.77,-0.008,0.207,8.61,17.989,65,12.27,35.4
50.84,-0.067,0.249,8.607,17.984,65,12.28,35.34
50.9,0.217,0.311,8.604,17.982,65,12.28,35.26
50.97,0.021,0.166,8.6,17.979,65,12.28,35.18
51.03,0.124,0.124,8.597,17.974,65,12.28,35.11
51.1,0.1202,0.166,8.594,17.971,65,12.27,35.05
51.16,0.108,0.145,8.591,17.967,65,12.28,35.03
51.23,-0.032,0.124,8.587,17.964,67,12.27,35.0
51.29,-0.028,0.145,8.585,17.961,67,12.27,34.92
51.35,-0.032,0.145,8.581,17.957,67,12.27,34.86
51.42,-0.049,0.186,8.577,17.954,67,12.27,34.68
51.48,-0.056,0.124,8.575,17.951,67,12.27,34.54
51.55,-0.058,0.186,8.572,17.947,67,12.27,34.5
51.61,-0.007,0.166,8.569,17.943,67,12.27,34.51
51.68,-0.055,0.207,8.567,17.941,67,12.27,34.53
51.74,0.237,0.269,8.563,17.937,67,12.27,34.5
51.81,-0.076,0.207,8.56,17.934,67,12.27,34.49
51.87,0.055,0.166,8.558,17.929,67,12.27,34.49
51.94,0.225,0.145,8.555,17.927,67,12.27,34.49
52.0,0.232,0.124,8.553,17.924,67,12.27,34.5
52.06,-0.035,0.124,8.55,17.921,67,12.27,34.57
52.13,-0.055,0.166,8.548,17.919,69,12.27,34.66
52.19,-0.062,0.207,8.545,17.916,69,12.27,34.79
52.26,-0.079,0.166,8.544,17.912,69,12.27,34.86
52.32,-0.091,0.186,8.54,17.91,69,12.27,34.9
52.39,-0.079,0.104,8.538,17.906,69,12.27,35.1
52.45,-0.068,0.145,8.535,17.904,69,12.27,35.41
52.52,-0.115,0.269,8.532,17.901,69,12.27,35.75
52.58,0.126,0.311,8.53,17.899,69,12.27,36.01
52.65,-0.035,0.186,8.527,17.895,69,12.27,36.25
52.71,0.073,0.145,8.524,17.892,69,12.27,36.5
52.77,0.248,0.145,8.522,17.889,69,12.27,36.75
52.84,0.009,0.166,8.519,17.886,69,12.26,37.0
52.9,-0.099,0.145,8.517,17.884,74,12.27,37.25
52.97,-0.094,0.228,8.514,17.881,74,12.27,37.46
53.03,-0.101,0.186,8.513,17.879,74,12.26,37.63
53.1,-0.093,0.186,8.51,17.877,74,12.27,37.69
53.16,-0.081,0.124,8.508,17.874,74,12.27,37.79
53.23,-0.138,0.228,8.504,17.871,74,12.27,37.93
53.29,0.126,0.249,8.503,17.869,74,12.27,38.02
53.35,-0.041,0.166,8.5,17.866,74,12.27,37.95
53.42,0.074,0.166,8.498,17.866,74,12.27,37.78
53.48,0.261,0.186,8.495,17.866,74,12.27,37.58
53.55,0.027,0.166,8.493,17.862,74,12.27,37.39
53.61,-0.08,0.124,8.49,17.86,84,12.27,37.23
53.68,-0.068,0.207,8.489,17.857,84,12.27,37.07
53.74,-0.077,0.166,8.487,17.855,84,12.27,36.92
53.81,-0.086,0.166,8.484,17.852,84,12.27,36.62
53.87,-0.037,0.207,8.483,17.851,84,12.27,36.38
53.94,-0.094,0.207,8.482,17.849,84,12.27,36.21
54.0,0.209,0.311,8.48,17.846,84,12.27,36.07
54.06,-0.088,0.207,8.477,17.844,84,12.27,35.91
54.13,0.041,0.145,8.475,17.842,84,12.27,35.75
54.19,0.22,0.166,8.473,17.84,84,12.27,35.6
54.26,0.179,0.166,8.471,17.837,84,12.27,35.45
54.32,-0.052,0.145,8.47,17.835,80,12.27,35.33
54.39,-0.05,0.145,8.467,17.834,80,12.27,35.21
54.45,-0.053,0.186,8.465,17.832,80,12.27,35.13
54.52,-0.068,0.145,8.462,17.829,80,12.27,34.94
54.58,-0.022,0.166,8.462,17.828,80,12.27,34.73
54.65,-0.076,0.145,8.46,17.827,80,12.27,34.65
54.71,0.191,0.269,8.457,17.824,80,12.27,34.63
54.77,-0.073,0.166,8.456,17.822,80,12.27,34.62
54.84,0.034,0.186,8.453,17.819,80,12.27,34.59
54.9,0.194,0.166,8.452,17.818,80,12.27,34.54
54.97,0.239,0.124,8.45,17.815,80,12.27,34.55
55.03,-0.028,0.145,8.447,17.813,80,12.27,34.55
55.1,-0.046,0.145,8.447,17.812,83,12.27,34.54
55.16,-0.045,0.145,8.445,17.81,83,12.27,34.52
55.23,-0.065,0.166,8.445,17.809,83,12.27,34.47
55.29,-0.035,0.207,8.442,17.807,83,12.27,34.34
55.35,-0.063,0.228,8.441,17.804,83,12.27,34.29
55.42,-0.001,0.331,8.44,17.802,83,12.27,34.35
55.48,0.078,0.269,8.437,17.799,83,12.27,34.51
55.55,0.0,0.145,8.435,17.797,83,12.27,34.61
55.61,0.123,0.166,8.432,17.795,83,12.27,34.74
55.68,0.24,0.166,8.432,17.793,83,12.27,34.92
55.74,-0.03,0.145,8.43,17.79,83,12.27,35.15
55.81,-0.081,0.166,8.428,17.788,82,12.27,35.41
55.87,-0.082,0.145,8.427,17.784,82,12.26,35.67
55.94,-0.101,0.166,8.426,17.778,82,12.27,35.89
56.0,-0.079,0.186,8.425,17.777,82,12.27,36.02
56.06,-0.113,0.166,8.422,17.774,82,12.27,36.27
56.13,0.008,0.29,8.421,17.773,82,12.27,36.57
56.19,-0.045,0.207,8.418,17.772,82,12.27,36.9
56.26,-0.034,0.186,8.417,17.769,82,12.27,37.14
56.32,0.105,0.104,8.415,17.767,82,12.27,37.35
56.39,0.199,0.166,8.413,17.765,82,12.27,37.57
56.45,-0.064,0.124,8.412,17.763,82,12.27,37.8
56.52,-0.108,0.207,8.41,17.762,85,12.27,38.02
56.58,-0.104,0.166,8.407,17.759,85,12.27,38.22
56.65,-0.111,0.166,8.406,17.758,85,12.27,38.29
56.71,-0.089,0.124,8.405,17.757,85,12.27,38.29
56.77,-0.157,0.166,8.403,17.753,85,12.27,38.33
56.84,0.104,0.269,8.402,17.752,85,12.27,38.39
56.9,-0.11,0.311,8.4,17.749,85,12.27,38.45
56.97,0.015,0.145,8.397,17.747,85,12.27,38.39
57.03,0.205,0.186,8.397,17.744,85,12.27,38.28
57.1,0.058,0.145,8.395,17.742,85,12.27,38.16
57.16,-0.098,0.207,8.392,17.741,88,12.27,38.04
57.23,-0.089,0.186,8.391,17.738,88,12.27,37.91
57.29,-0.092,0.207,8.389,17.737,88,12.27,37.75
57.35,-0.088,0.186,8.385,17.735,88,12.27,37.47
57.42,-0.069,0.145,8.383,17.733,88,12.26,37.22
57.48,-0.136,0.166,8.381,17.731,88,12.26,37.06
57.55,0.165,0.331,8.379,17.728,88,12.26,36.91
57.61,-0.04,0.186,8.374,17.726,88,12.26,36.75
57.68,0.063,0.124,8.369,17.725,88,12.27,36.54
57.74,0.253,0.145,8.364,17.723,88,12.27,36.37
57.81,0.041,0.145,8.359,17.721,88,12.27,36.18
57.87,-0.076,0.186,8.358,17.72,85,12.26,36.01
57.94,-0.063,0.145,8.354,17.717,85,12.25,35.81
58.0,-0.076,0.145,8.353,17.717,85,12.23,35.66
58.06,-0.069,0.186,8.349,17.715,85,12.23,35.4
58.13,-0.052,0.186,8.348,17.713,85,12.23,35.2
58.19,-0.127,0.145,8.345,17.711,85,12.23,35.1
58.26,0.171,0.331,8.343,17.71,85,12.25,35.05
58.32,-0.032,0.124,8.341,17.708,85,12.25,34.99
58.39,0.065,0.124,8.34,17.707,85,12.26,34.9
58.45,0.256,0.124,8.338,17.703,85,12.27,34.83
58.52,0.056,0.207,8.336,17.702,85,12.26,34.8
58.58,-0.073,0.145,8.335,17.7,84,12.26,35.02
58.65,-0.066,0.166,8.333,17.7,84,12.26,35.14
58.71,-0.077,0.166,8.333,17.698,84,12.26,35.11
58.77,-0.091,0.186,8.33,17.697,84,12.26,34.89
58.84,-0.099,0.269,8.328,17.696,84,12.25,34.7
58.9,-0.115,0.166,8.326,17.695,84,12.23,34.64
58.97,0.187,0.331,8.324,17.695,84,12.22,34.68
59.03,-0.116,0.249,8.323,17.695,84,12.22,34.74
59.1,0.007,0.124,8.323,17.695,84,12.23,34.76
59.16,0.17,0.207,8.32,17.695,84,12.23,35.04
59.23,0.163,0.145,8.32,17.695,84,12.25,35.06
59.29,-0.075,0.145,8.318,17.696,81,12.27,35.31
59.35,-0.088,0.145,8.316,17.697,81,12.28,35.66
59.42,-0.094,0.186,8.315,17.695,81,12.28,36.09
59.48,-0.114,0.186,8.314,17.695,81,12.31,36.31
59.55,-0.097,0.166,8.313,17.695,81,12.29,36.55
59.61,-0.112,0.166,8.313,17.695,81,12.28,36.88
59.68,-0.116,0.166,8.31,17.693,81,12.29,37.2
59.74,0.048,0.29,8.308,17.692,81,12.28,37.53
59.81,-0.059,0.166,8.306,17.692,81,12.28,37.77
59.87,0.063,0.166,8.305,17.69,81,12.28,37.99
59.94,0.21,0.145,8.304,17.69,81,12.29,38.2
60.0,-0.036,0.166,8.303,17.687,81,12.29,38.43
60.06,-0.109,0.145,8.302,17.687,81,12.28,38.65
60.13,-0.096,0.186,8.301,17.685,81,12.28,38.82
60.19,-0.106,0.166,8.301,17.687,81,12.28,38.86
60.26,-0.058,0.145,8.299,17.686,81,12.28,38.7
60.32,-0.106,0.186,8.298,17.683,81,12.28,38.5
60.39,0.082,0.207,8.296,17.681,81,12.28,38.3
60.45,-0.028,0.269,8.294,17.678,81,12.27,38.16
60.52,0.006,0.166,8.293,17.677,81,12.27,37.98
60.58,0.161,0.228,8.291,17.675,81,12.28,37.77
60.65,0.239,0.145,8.289,17.672,81,12.28,37.56
60.71,-0.026,0.166,8.288,17.67,81,12.27,37.32
60.77,-0.053,0.145,8.286,17.668,85,12.27,37.07
60.84,-0.044,0.166,8.284,17.667,85,12.27,36.81
60.9,-0.057,0.249,8.283,17.665,85,12.27,36.53
60.97,-0.044,0.124,8.283,17.665,85,12.27,36.21
61.03,-0.025,0.207,8.281,17.662,85,12.28,35.98
61.1,-0.092,0.186,8.279,17.66,85,12.28,35.8
61.16,0.213,0.394,8.278,17.658,85,12.28,35.67
61.23,0.08,0.207,8.278,17.657,85,12.31,35.53
61.29,0.144,0.186,8.276,17.657,85,12.31,35.42
61.35,0.294,0.166,8.276,17.655,85,12.31,35.33
61.42,0.098,0.145,8.273,17.657,85,12.32,35.27
61.48,-0.035,0.124,8.273,17.658,81,12.32,35.21
61.55,-0.025,0.124,8.269,17.672,81,12.32,35.07
61.61,-0.037,0.207,8.271,17.673,81,12.31,35.06
61.68,-0.046,0.166,8.271,17.684,81,12.29,34.86
61.74,-0.007,0.145,8.268,17.7,81,12.28,34.69
61.81,-0.073,0.145,8.267,17.721,81,12.28,34.62
61.87,0.21,0.29,8.266,17.746,81,12.31,34.64
61.94,-0.051,0.186,8.264,17.771,81,12.31,34.65
62.0,0.064,0.166,8.263,17.801,81,12.31,34.59
62.06,0.244,0.166,8.262,17.834,81,12.29,34.55
62.13,0.159,0.104,8.261,17.867,81,12.29,34.55
62.19,-0.051,0.166,8.261,17.9,82,12.29,34.55
62.26,-0.056,0.124,8.261,17.93,82,12.29,34.55
62.32,-0.069,0.228,8.259,17.958,82,12.29,34.6
62.39,-0.086,0.166,8.261,17.984,82,12.29,34.65
62.45,-0.053,0.145,8.262,18.008,82,12.29,34.74
62.52,-0.128,0.207,8.263,18.028,82,12.31,34.99
62.58,0.143,0.331,8.267,18.046,82,12.31,35.35
62.65,-0.126,0.166,8.269,18.06,82,12.31,35.67
62.71,-0.008,0.145,8.274,18.074,82,12.31,36.01
62.77,0.17,0.145,8.278,18.086,82,12.28,36.39
62.84,0.077,0.166,8.282,18.098,82,12.28,36.74
62.9,-0.127,0.124,8.287,18.115,84,12.27,37.07
62.97,-0.127,0.186,8.294,18.136,84,12.27,37.36
63.03,-0.123,0.145,8.299,18.166,84,12.27,37.66
63.1,-0.099,0.228,8.306,18.202,84,12.27,37.82
63.16,-0.167,0.145,8.314,18.244,84,12.26,38.02
63.23,0.094,0.269,8.321,18.293,84,12.25,38.27
63.29,-0.181,0.166,8.329,18.351,84,12.25,38.56
63.35,-0.009,0.166,8.336,18.411,84,12.25,38.73
63.42,0.184,0.166,8.344,18.473,84,12.25,38.82
63.48,0.108,0.104,8.351,18.535,84,12.25,38.83
63.55,-0.093,0.104,8.359,18.593,93,12.25,38.7
63.61,-0.086,0.186,8.366,18.648,93,12.25,38.45
63.68,-0.08,0.166,8.375,18.695,93,12.25,38.17
63.74,-0.041,0.124,8.382,18.736,93,12.25,37.85
63.81,-0.097,0.186,8.392,18.772,93,12.25,37.52
63.87,0.196,0.352,8.402,18.803,93,12.25,37.27
63.94,-0.095,0.29,8.412,18.826,93,12.25,37.07
64.0,0.021,0.166,8.424,18.842,93,12.25,36.85
64.06,0.191,0.186,8.437,18.855,93,12.25,36.59
64.13,0.202,0.145,8.451,18.857,93,12.23,36.39
64.19,-0.045,0.145,8.463,18.856,93,12.23,36.2
64.26,-0.052,0.166,8.478,18.858,90,12.23,35.95
64.32,-0.017,0.186,8.493,18.866,90,12.23,35.73
64.39,-0.014,0.207,8.51,18.857,90,12.23,35.48
64.45,-0.066,0.186,8.525,18.834,90,12.22,35.18
64.52,0.03,0.352,8.543,18.806,90,12.22,35.01
64.58,0.097,0.269,8.558,18.772,90,12.21,34.88
64.65,0.023,0.166,8.584,18.745,90,12.22,34.74
64.71,0.162,0.124,8.585,18.743,90,12.22,34.73
64.77,0.267,0.124,8.598,18.718,90,12.23,34.65
64.84,-0.008,0.104,8.611,18.686,90,12.22,34.59
64.9,-0.04,0.145,8.623,18.663,91,12.22,34.55
64.97,-0.035,0.166,8.636,18.642,91,12.22,34.49
65.03,-0.026,0.186,8.646,18.62,91,12.22,34.4
65.1,-0.02,0.104,8.655,18.601,91,12.22,34.22
65.16,-0.092,0.207,8.663,18.586,91,12.23,34.15
65.23,0.215,0.331,8.669,18.568,91,12.25,34.18
65.29,0.006,0.166,8.674,18.541,91,12.25,34.21
65.35,0.102,0.145,8.679,18.524,91,12.25,34.17
65.42,0.288,0.186,8.682,18.508,91,12.25,34.12
65.48,0.064,0.145,8.686,18.491,91,12.26,34.14
65.55,-0.051,0.145,8.686,18.475,89,12.26,34.18
65.61,-0.047,0.145,8.688,18.458,89,12.26,34.22
65.68,-0.053,0.186,8.688,18.443,89,12.26,34.31
65.74,-0.034,0.166,8.688,18.429,89,12.26,34.33
65.81,-0.11,0.145,8.689,18.415,89,12.26,34.48
65.87,0.183,0.414,8.688,18.402,89,12.26,34.8
65.94,-0.057,0.186,8.686,18.388,89,12.25,35.21
66.0,0.041,0.145,8.684,18.375,89,12.25,35.56
66.06,0.222,0.166,8.681,18.365,89,12.25,35.86
66.13,0.059,0.124,8.677,18.357,89,12.26,36.23
66.19,-0.095,0.166,8.672,18.354,91,12.25,36.58
66.26,-0.091,0.186,8.669,18.358,91,12.25,36.89
66.32,-0.062,0.145,8.664,18.373,91,12.26,37.19
66.39,-0.1,0.207,8.659,18.402,91,12.26,37.35
66.45,-0.111,0.228,8.655,18.443,91,12.26,37.57
66.52,0.07,0.331,8.65,18.498,91,12.27,37.81
66.58,-0.034,0.186,8.645,18.566,91,12.28,38.07
66.65,0.093,0.186,8.637,18.646,91,12.28,38.21
66.71,0.228,0.104,8.632,18.735,91,12.27,38.29
66.77,-0.053,0.186,8.626,18.833,91,12.26,38.3
66.84,-0.084,0.228,8.62,18.934,96,12.27,38.2
66.9,-0.071,0.145,8.615,19.041,96,12.27,38.0
66.97,-0.068,0.104,8.61,19.146,96,12.28,37.76
67.03,-0.054,0.145,8.605,19.249,96,12.28,37.46
67.1,-0.119,0.186,8.602,19.454,96,12.28,37.06
67.16,0.178,0.435,8.602,19.467,96,12.28,37.05
67.23,-0.043,0.124,8.604,19.559,96,12.28,36.91
67.29,0.063,0.166,8.608,19.65,96,12.28,36.71
67.35,0.258,0.145,8.616,19.731,96,12.28,36.52
67.42,0.07,0.166,8.627,19.81,96,12.27,36.33
67.48,-0.068,0.124,8.644,19.886,89,12.27,36.16
67.55,-0.06,0.207,8.664,19.96,89,12.27,35.94
67.61,-0.068,0.145,8.688,20.039,89,12.27,35.75
67.68,-0.067,0.186,8.715,20.116,89,12.27,35.45
67.74,-0.041,0.166,8.746,20.184,89,12.27,35.24
67.81,-0.105,0.124,8.781,20.245,89,12.27,35.11
67.87,0.182,0.352,8.819,20.3,89,12.27,35.04
67.94,-0.044,0.145,8.857,20.348,89,12.27,34.96
68.0,0.059,0.166,8.901,20.389,89,12.27,34.85
68.06,0.254,0.145,8.945,20.426,89,12.27,34.77
68.13,0.097,0.186,8.99,20.447,89,12.27,34.7
68.19,-0.063,0.228,9.037,20.458,84,12.27,34.64
68.26,-0.065,0.166,9.085,20.463,84,12.27,34.55
68.32,-0.071,0.145,9.132,20.458,84,12.27,34.49
68.39,-0.086,0.166,9.181,20.44,84,12.27,34.31
68.45,-0.092,0.166,9.229,20.416,84,12.27,34.18
68.52,-0.092,0.145,9.315,20.346,84,12.27,34.17
68.58,-0.09,0.145,9.32,20.342,84,12.27,34.17
68.65,-0.089,0.207,9.358,20.299,84,12.27,34.19
68.71,-0.066,0.145,9.395,20.25,84,12.26,34.16
68.77,-0.069,0.166,9.431,20.199,84,12.26,34.18
68.84,-0.053,0.249,9.463,20.144,84,12.27,34.25
68.9,0.182,0.352,9.496,20.09,84,12.27,34.37
68.97,0.002,0.145,9.526,20.031,84,12.26,34.52
69.03,0.104,0.186,9.554,19.972,84,12.27,34.71
69.1,0.266,0.145,9.582,19.913,84,12.25,34.94
69.16,0.025,0.166,9.607,19.855,84,12.23,35.26
69.23,-0.071,0.186,9.632,19.795,59,12.25,35.57
69.29,-0.069,0.166,9.654,19.738,59,12.25,35.86
69.35,-0.086,0.166,9.674,19.679,59,12.26,36.08
69.42,-0.105,0.124,9.691,19.625,59,12.27,36.2
69.48,-0.106,0.186,9.706,19.573,59,12.29,36.46
69.55,-0.089,0.166,9.715,19.521,59,12.32,36.79
69.61,-0.132,0.249,9.724,19.474,59,12.31,37.13
69.68,0.133,0.269,9.738,19.429,59,12.31,37.36
69.74,-0.059,0.207,9.758,19.384,59,12.33,37.55
69.81,0.059,0.166,9.77,19.343,59,12.33,37.75
69.87,0.257,0.145,9.767,19.303,59,12.34,37.94
69.94,0.071,0.124,9.757,19.264,59,12.33,38.09
70.0,-0.074,0.124,9.748,19.23,75,12.33,38.14
70.06,-0.064,0.269,9.742,19.195,75,12.33,38.05
70.13,-0.059,0.145,9.734,19.163,75,12.33,37.87
70.19,-0.071,0.29,9.728,19.131,75,12.33,37.55
70.26,-0.07,0.29,9.722,19.104,75,12.33,37.21
70.32,-0.053,0.311,9.709,19.072,75,12.33,36.93
70.39,-0.042,0.331,9.696,19.044,75,12.33,36.67
70.45,-0.024,0.228,9.681,19.012,75,12.33,36.45
70.52,0.189,0.29,9.665,18.986,75,12.33,36.18
70.58,0.038,0.166,9.649,18.963,75,12.33,35.85
70.65,0.149,0.145,9.634,18.944,75,12.33,35.61
70.71,0.11244325153374232,0.145,9.619,18.932,75,12.33,35.45
70.77,0.044,0.186,9.602,18.925,75,12.33,35.28
70.84,-0.033,0.124,9.583,18.932,73,12.32,35.11
70.9,-0.025,0.083,9.564,18.954,73,12.32,34.89
70.97,-0.032,0.207,9.546,18.991,73,12.32,34.76
71.03,-0.041,0.124,9.53,19.048,73,12.32,34.54
71.1,-0.033,0.186,9.512,19.123,73,12.33,34.43
71.16,0.004,0.104,9.495,19.202,73,12.33,34.37
71.23,-0.048,0.166,9.477,19.292,73,12.33,34.38
71.29,0.223,0.352,9.46,19.385,73,12.33,34.37
71.35,0.007,0.104,9.443,19.484,73,12.33,34.36
71.42,0.111,0.166,9.429,19.584,73,12.33,34.35
71.48,0.307,0.104,9.418,19.681,73,12.33,34.29
71.55,0.17,0.124,9.409,19.776,73,12.33,34.26
71.61,-0.021,0.124,9.404,19.862,75,12.33,34.29
71.68,-0.027,0.104,9.405,19.944,75,12.33,34.39
71.74,-0.033,0.124,9.41,20.015,75,12.33,34.57
71.81,-0.049,0.124,9.42,20.07,75,12.33,34.64
71.87,-0.016,0.124,9.439,20.11,75,12.33,34.8
71.94,-0.082,0.145,9.462,20.14,75,12.34,35.15
72.0,0.185,0.29,9.491,20.169,75,12.34,35.55
72.06,-0.082,0.124,9.526,20.181,75,12.33,35.92
72.13,0.054,0.166,9.566,20.196,75,12.33,36.26
72.19,0.244,0.124,9.609,20.225,75,12.33,36.57
72.26,0.147,0.124,9.655,20.216,75,12.32,36.88
72.32,-0.066,0.166,9.706,20.198,83,12.32,37.2
72.39,-0.072,0.145,9.758,20.14,83,12.32,37.47
72.45,-0.069,0.104,9.812,20.064,83,12.32,37.67
72.52,-0.031,0.145,9.865,20.008,83,12.32,37.77
72.58,-0.095,0.186,9.916,19.953,83,12.32,37.87
72.65,0.199,0.269,9.968,19.899,83,12.32,38.03
72.71,-0.134,0.207,10.018,19.855,83,12.32,38.17
72.77,0.027,0.145,10.067,19.811,83,12.32,38.18
72.84,0.199,0.145,10.111,19.775,83,12.31,38.02
72.9,0.204,0.124,10.154,19.733,83,12.31,37.8
72.97,-0.042,0.124,10.195,19.692,83,12.31,37.61
73.03,-0.057,0.166,10.232,19.652,90,12.31,37.39
73.1,-0.052,0.124,10.266,19.614,90,12.31,37.13
73.16,-0.034,0.124,10.298,19.579,90,12.31,36.79
73.23,-0.047,0.104,10.325,19.548,90,12.31,36.42
73.29,-0.08,0.228,10.346,19.516,90,12.31,36.15
73.35,0.188,0.394,10.366,19.491,90,12.31,35.89
73.42,0.012,0.166,10.382,19.473,90,12.31,35.71
73.48,0.123,0.124,10.396,19.467,90,12.31,35.54
73.55,0.293,0.124,10.405,19.477,90,12.31,35.38
73.61,0.028,0.186,10.412,19.502,90,12.31,35.21
73.68,-0.047,0.104,10.417,19.544,89,12.31,35.07
73.74,-0.042,0.124,10.419,19.601,89,12.31,34.92
73.81,-0.047,0.145,10.419,19.68,89,12.31,34.81
73.87,-0.016,0.166,10.415,19.765,89,12.31,34.59
73.94,-0.087,0.186,10.41,19.854,89,12.31,34.45
74.0,0.204,0.414,10.405,19.939,89,12.31,34.39
74.06,-0.055,0.166,10.397,20.019,89,12.31,34.42
74.13,0.056,0.124,10.388,20.128,89,12.31,34.44
74.19,0.243,0.145,10.382,20.236,89,12.31,34.4
74.26,0.134,0.166,10.377,20.333,89,12.31,34.38
74.32,-0.065,0.145,10.376,20.424,89,12.31,34.4
74.39,-0.063,0.166,10.377,20.501,89,12.31,34.42
74.45,-0.076,0.124,10.382,20.576,89,12.31,34.42
74.52,-0.054,0.145,10.393,20.643,89,12.31,34.37
74.58,-0.093,0.145,10.407,20.697,89,12.31,34.34
74.65,-0.058,0.207,10.427,20.742,89,12.31,34.54
74.71,0.093,0.269,10.449,20.778,89,12.31,34.85
74.77,-0.025,0.166,10.478,20.809,89,12.31,35.16
74.84,0.098,0.145,10.508,20.832,89,12.31,35.41
74.9,0.215,0.104,10.539,20.85,89,12.31,35.73
74.97,-0.047,0.124,10.574,20.865,89,12.31,36.07
75.03,-0.103,0.124,10.606,20.879,88,12.31,36.37
75.1,-0.101,0.145,10.642,20.898,88,12.31,36.62
75.16,-0.081,0.166,10.678,20.925,88,12.31,36.83
75.23,-0.119,0.145,10.715,20.964,88,12.31,36.95
75.29,-0.122,0.207,10.753,21.012,88,12.31,37.19
75.35,0.05,0.207,10.787,21.068,88,12.31,37.47
75.42,-0.058,0.145,10.816,21.126,88,12.31,37.73
75.48,0.068,0.166,10.846,21.187,88,12.31,37.91
75.55,0.202,0.124,10.872,21.257,93,12.32,38.08
75.61,-0.044,0.145,10.899,21.322,93,12.31,38.23
75.68,-0.099,0.166,10.922,21.385,93,12.31,38.33
75.74,-0.089,0.124,10.944,21.441,93,12.32,38.33
75.81,-0.076,0.186,10.968,21.486,93,12.31,38.15
75.87,-0.078,0.186,10.989,21.519,93,12.31,37.86
75.94,0.05,0.331,11.01,21.535,93,12.31,37.63
76.0,0.064,0.497,11.026,21.54,93,12.31,37.45
76.06,-0.043,0.145,11.042,21.528,93,12.31,37.32
76.13,0.069,0.145,11.06,21.502,100,12.31,37.13
76.19,0.243,0.145,11.075,21.464,100,12.31,36.93
76.26,0.004,0.124,11.107,21.376,100,12.32,36.54
76.32,-0.086,0.145,11.109,21.37,100,12.32,36.51
76.39,-0.075,0.104,11.124,21.316,100,12.31,36.32
76.45,-0.067,0.186,11.138,21.256,100,12.31,36.11
76.52,-0.052,0.145,11.149,21.189,100,12.31,35.75
76.58,-0.123,0.207,11.159,21.12,100,12.31,35.52
76.65,0.174,0.311,11.168,21.05,100,12.31,35.39
76.71,-0.048,0.166,11.173,20.985,100,12.31,35.32
76.77,0.055,0.186,11.177,20.925,100,12.31,35.23
76.84,0.25,0.145,11.175,20.875,100,12.31,35.11
76.9,0.068,0.145,11.17,20.839,100,12.31,35.02
76.97,-0.071,0.145,11.163,20.819,83,12.31,34.95
77.03,-0.056,0.124,11.155,20.821,83,12.31,34.85
77.1,-0.056,0.145,11.145,20.847,83,12.31,34.79
77.16,-0.012,0.186,11.13,20.897,83,12.31,34.63
77.23,-0.078,0.145,11.116,20.969,83,12.31,34.51
77.29,0.235,0.311,11.098,21.058,83,12.31,34.45
77.35,-0.056,0.186,11.077,21.163,83,12.31,34.49
77.42,0.073,0.145,11.057,21.282,83,12.31,34.52
77.48,0.25,0.124,11.036,21.405,83,12.31,34.49
77.55,0.199,0.145,11.016,21.533,83,12.31,34.46
77.61,-0.027,0.124,11.0,21.661,90,12.31,34.46
77.68,-0.037,0.104,10.987,21.786,90,12.31,34.47
77.74,-0.044,0.186,10.983,21.908,90,12.31,34.51
77.81,-0.068,0.124,10.986,22.022,90,12.31,34.51
77.87,-0.078,0.124,10.997,22.128,90,12.31,34.57
77.94,-0.067,0.29,11.016,22.227,90,12.31,34.8
78.0,0.15,0.29,11.043,22.321,90,12.31,35.16
78.06,-0.007,0.124,11.076,22.409,90,12.31,35.52
78.13,0.105,0.124,11.159,22.547,90,12.31,36.09
78.19,0.231,0.104,11.165,22.556,90,12.31,36.12
78.26,-0.029,0.145,11.214,18.996548228091548,90,12.31,36.42
78.32,-0.102,0.166,11.266,18.9966271315517,89,12.31,36.72
78.39,-0.097,0.166,11.323,18.996705851938252,89,12.31,37.01
78.45,-0.07,0.145,11.383,18.996784389318556,89,12.31,37.23
78.52,-0.127,0.104,11.443,18.99686274375999,89,12.31,37.37
78.58,-0.054,0.249,11.502,18.996940915329912,89,12.31,37.6
78.65,-0.005,0.228,11.562,18.99701890409569,89,12.31,37.88
78.71,-0.045,0.083,11.619,18.99709671012469,89,12.31,38.16
78.77,0.088,0.124,11.677,18.997174333484267,89,12.32,38.29
78.84,0.185,0.145,11.73,18.9972517742418,93,12.33,38.41
78.9,-0.067,0.104,11.787,18.99732903246465,93,12.33,38.48
78.97,-0.102,0.124,11.933,18.997406108220165,93,12.33,38.42
79.03,-0.09,0.104,12.094,18.997483001575738,93,12.33,38.17
79.1,-0.087,0.145,12.151,18.997559712598715,93,12.33,37.77
79.16,-0.066,0.145,12.115,18.997636241356464,93,12.34,37.25
79.23,-0.129,0.124,12.068,18.997712587916354,93,12.33,36.72
79.29,0.156,0.331,12.111,18.997788752345745,93,12.33,36.2
79.35,-0.073,0.186,12.121,18.997864734712007,93,12.34,35.75
79.42,0.037,0.166,12.089,18.997940535082495,93,12.33,35.28
79.48,0.227,0.104,12.089,18.99801615352459,93,12.34,34.88
79.55,0.07,0.145,12.119,18.99809159010564,93,12.33,34.54
79.61,-0.075,0.166,12.167,18.99816684489302,89,12.33,34.29
79.68,-0.061,0.186,12.219,18.998241917954097,89,12.33,33.99
79.74,-0.063,0.145,12.247,18.998316809356233,89,12.36,33.75
79.81,-0.053,0.124,12.285,18.998391519166788,89,12.37,33.28
79.87,-0.059,0.166,12.335,18.998466047453125,89,12.33,32.87
79.94,-0.11,0.186,12.385,18.99854039428262,89,12.34,32.41
80.0,0.149,0.311,12.399,18.998614559722633,89,12.33,32.21
80.06,-0.014,0.124,12.434,18.998688543840526,89,12.33,32.07
80.13,0.09,0.145,12.493,18.99876234670366,89,12.33,31.83
80.19,0.255,0.104,12.494,18.998835968379417,89,12.33,31.71
80.26,0.007,0.124,12.643,18.998909408935145,89,12.33,31.72
80.32,-0.081,0.104,12.76,18.998982668438217,86,12.33,31.8
80.39,-0.08,0.145,12.647,18.999055746955985,86,12.33,31.86
80.45,-0.097,0.145,12.577,18.999128644555835,86,12.33,31.89
80.52,-0.094,0.166,12.519,18.999201361305115,86,12.33,31.75
80.58,-0.102,0.166,12.497,18.999273897271202,86,12.33,31.77
80.65,-0.163,0.166,12.528,18.999346252521452,86,12.34,32.04
80.71,0.077,0.228,12.58,18.99941842712323,86,12.33,32.33
80.77,-0.098,0.145,12.66,18.999490421143907,86,12.34,32.84
80.84,0.01,0.124,12.808,18.999562234650842,86,12.34,33.15
80.9,0.164,0.145,12.908,18.99963386771141,83,12.36,33.34
80.97,-0.072,0.124,12.934,18.999705320392955,83,12.37,33.57
81.03,-0.179,0.124,12.909,18.99977659276286,83,12.34,33.9
81.1,-0.171,0.145,12.94,18.99984768488849,83,12.36,34.06
81.16,-0.173,0.104,13.001,18.9999185968372,83,12.31,34.25
81.23,-0.145,0.124,13.03,18.999989328676364,83,12.28,34.18
81.29,-0.209,0.145,13.039,19.000059880473337,83,12.27,34.32
81.35,0.079,0.29,13.071,19.000130252295495,83,12.29,34.68
81.42,-0.237,0.186,13.107,19.000200444210193,83,12.26,35.08
81.48,-0.056,0.145,13.128,19.000270456284802,83,12.27,35.5
81.55,0.124,0.145,13.154,19.000340288586685,89,12.26,35.57
81.61,0.064,0.124,13.186,19.000409941183207,89,12.21,35.55
81.68,-0.146,0.124,13.212,19.00047941414174,89,12.21,35.45
81.74,-0.146,0.166,13.241,19.00054870752963,89,12.23,35.26
81.81,-0.133,0.145,13.265,19.000617821414263,89,12.29,35.16
81.87,-0.128,0.145,13.289,19.00068675586299,89,12.36,34.79
81.94,-0.085,0.166,13.321,19.00075551094318,89,12.25,34.32
82.0,-0.133,0.166,13.36,19.000824086722194,89,12.32,34.09
82.06,0.153,0.29,13.408,19.00089248326741,89,12.26,33.93
82.13,-0.105,0.145,13.456,19.00096070064618,89,12.22,33.83
82.19,0.028,0.186,13.512,19.00102873892587,89,12.25,33.67
82.26,0.22,0.186,13.556,19.001096598173852,89,12.28,33.92
82.32,0.101,0.124,13.645,19.001164278457484,89,12.32,33.98
82.39,-0.078,0.104,13.81,19.001231779844133,85,12.23,33.63
82.45,-0.073,0.124,13.852,19.001299102401163,85,12.23,33.17
82.52,-0.077,0.145,13.855,19.00136624619595,85,12.33,32.9
82.58,-0.088,0.124,13.855,19.00143321129584,85,12.38,32.62
82.65,-0.041,0.166,13.856,19.00149999776821,85,12.45,32.39
82.71,-0.092,0.186,13.799,19.001566605680427,85,12.45,32.31
82.77,0.199,0.29,13.803,19.001633035099843,85,12.45,32.29
82.84,-0.118,0.186,13.809,19.00169928609383,85,12.51,32.24
82.9,0.043,0.124,13.852,19.00176535872976,85,12.59,32.16
82.97,0.215,0.186,13.906,19.001831253074982,85,12.45,32.12
83.03,0.191,0.104,13.982,19.00189696919688,85,12.42,32.07
83.1,-0.054,0.124,14.037,19.001962507162805,85,12.6,32.02
83.16,-0.061,0.124,14.033,19.002027867040127,83,12.61,31.93
83.23,-0.067,0.166,14.04,19.002093048896207,83,12.62,31.74
83.29,-0.088,0.145,14.053,19.00215805279842,83,12.629999999999999,31.59
83.35,-0.052,0.186,14.008,19.002222878814116,83,12.64,31.76
83.42,-0.115,0.124,14.02,19.002287527010672,83,12.65,31.83
83.48,0.174,0.311,14.055,19.002351997455445,83,12.66,32.06
83.55,-0.153,0.186,14.077,19.002416290215805,83,12.67,32.55
83.61,-0.012,0.166,14.125,19.00248040535912,83,12.68,33.02
83.68,0.149,0.124,14.173,19.002544342952742,83,12.690000000000001,33.56
83.74,0.14,0.145,14.217,19.002608103064045,83,12.700000000000001,33.9
83.81,-0.101,0.124,14.265,19.002671685760397,84,12.71,34.15
83.87,-0.119,0.145,14.313,19.002735091109162,84,12.72,34.4
83.94,-0.117,0.145,14.306,19.002798319177693,84,12.65,34.71
84.0,-0.118,0.124,14.338,19.002861370033372,84,12.76,34.84
84.06,-0.094,0.145,14.367,19.002924243743553,84,12.89,35.0
84.13,-0.156,0.145,14.372,19.002986940375596,84,12.878,35.24
84.19,0.113,0.352,14.403,19.003049459996888,84,12.866,35.55
84.26,-0.123,0.104,14.404,19.003111802674766,84,12.854000000000001,35.81
84.32,0.015,0.186,14.415,19.003173968476613,84,12.842,35.92
84.39,0.205,0.124,14.413,19.003235957469784,84,12.83,35.97
84.45,0.076,0.104,14.384,19.00329776972165,84,12.7,35.92
84.52,-0.087,0.166,14.356,19.003359405299573,85,12.65,35.82
84.58,-0.076,0.145,14.347,19.003420864270925,85,12.67,35.66
84.65,-0.073,0.104,14.348,19.00348214670306,85,12.66,35.46
84.71,-0.064,0.166,14.344,19.003543252663356,85,12.66,35.1
84.77,-0.035,0.145,14.344,19.003604182219163,85,12.64,34.77
84.84,-0.094,0.145,14.362,19.003664935437858,85,12.83,34.48
84.9,0.18,0.373,14.423,19.003725512386797,85,12.95,34.21
84.97,-0.023,0.145,14.49,19.00378591313335,85,12.73,33.94
85.03,0.087,0.124,14.539,19.00384613774488,85,12.65,33.72
85.1,0.282,0.166,14.546,19.00390618628875,85,12.66,33.52
85.16,0.111,0.145,14.499,19.003966058832326,85,12.81,33.31
85.23,-0.035,0.145,14.605,19.00402575544298,85,12.81452380952381,32.97
85.29,-0.025,0.145,14.684,19.004085276188068,85,12.81904761904762,32.94
85.35,-0.027,0.124,14.696,19.004144621134962,85,12.823571428571428,32.9
85.42,-0.011,0.145,14.714,19.00420379035102,85,12.828095238095239,32.87
85.48,-0.002,0.186,14.739,19.00426278390361,85,12.832619047619048,32.94
85.55,-0.061,0.166,14.723,19.00432160186009,85,12.837142857142858,33.17
85.61,0.212,0.352,14.621,19.004380244287844,85,12.841666666666667,33.33
85.68,0.042,0.29,14.73,19.004438711254213,85,12.846190476190477,33.5
85.74,0.151,0.311,14.75,19.00449700282658,85,12.850714285714286,33.78
85.81,0.13903608247422677,0.414,14.897,19.0045551190723,85,12.855238095238096,34.03
85.87,0.107,0.746,9.940616264938257,19.00461306005874,85,12.859761904761905,34.05
85.94,-0.011,0.663,9.940817774987336,19.00467082585327,85,12.864285714285714,34.1
86.0,-0.001,1.098,9.94101912360568,19.004728416523253,85,12.868809523809524,34.14
86.06,-0.019,1.14,9.94122031081545,19.004785832136044,85,12.873333333333333,34.29
86.13,0.0,1.243,9.941421336638832,19.004843072759023,85,12.877857142857144,34.24
86.19,-0.038,1.388,9.94162220109799,19.00490013845954,85,12.882380952380952,34.28
86.26,-0.013,1.222,9.941822904215105,19.004957029304972,85,12.886904761904763,34.6
86.32,0.087,1.16,9.942023446012337,19.00501374536267,85,12.891428571428571,35.05
86.39,-0.007,1.616,9.94222382651187,19.005070286700022,85,12.895952380952382,35.3
86.45,0.102,1.098,9.942424045735873,19.005126653384366,85,12.90047619047619,35.42
86.52,0.198,1.554,9.942624103706516,19.00518284548309,85,12.905,35.49
86.58,-0.05,1.906,9.942824000445976,19.005238863063546,85,12.90952380952381,35.55
86.65,-0.139,0.87,9.943023735976421,19.005294706193098,86,12.914047619047619,35.68
86.71,-0.112,1.802,9.943223310320025,19.005350374939123,86,12.918571428571429,35.79
86.77,-0.106,1.077,9.943422723498962,19.005405869368964,86,12.923095238095238,35.92
86.84,-0.131,1.285,9.943621975535402,19.00546118955001,86,12.927619047619048,35.76
86.9,-0.121,1.077,9.943821066451521,19.005516335549615,86,12.932142857142857,36.14
86.97,0.028,0.787,9.944019996269493,19.005571307435133,86,12.936666666666667,36.15
87.03,-0.066,0.891,9.944218765011485,19.005626105273947,86,12.941190476190476,36.11
87.1,0.06,1.057,9.944417372699672,19.00568072913341,86,12.945714285714287,36.11
87.16,0.177,0.518,9.944615819356224,19.0057351790809,93,12.950238095238095,35.86
87.23,-0.075,1.202,9.944814105003323,19.005789455183773,93,12.954761904761904,35.59
87.29,-0.125,1.554,9.945012229663131,19.00584355750939,93,12.959285714285715,35.33
87.35,-0.106,0.767,9.945210193357825,19.005897486125118,93,12.963809523809523,35.08
87.42,-0.091,0.932,9.945407996109576,19.005951241098323,93,12.968333333333334,34.79
87.48,-0.124,0.684,9.945605637940558,19.00600482249638,93,12.972857142857142,34.48
87.55,-0.123,1.533,9.945803118872945,19.00605823038664,93,12.977380952380953,34.24
87.61,0.097,0.746,9.946000438928905,19.006111464836472,93,12.981904761904762,34.23
87.68,-0.065,0.622,9.946197598130617,19.006164525913242,93,12.986428571428572,34.31
87.74,0.071,0.622,9.94639459650025,19.00621741368431,93,12.99095238095238,34.31
87.81,0.2,0.539,9.946591434059977,19.00627012821705,93,12.995476190476191,34.24
87.87,-0.069,0.663,9.946788110831966,19.00632266957882,93,13.0,34.2
87.94,-0.113,0.684,9.946984626838397,19.00637503783699,93,12.86,34.16
88.0,-0.118,0.539,9.947180982101441,19.006427233058925,93,12.83,34.14
88.06,-0.09,0.642,9.947377176643267,19.00647925531198,93,12.89,34.07
88.13,-0.11,0.518,9.94757321048605,19.006531104663527,93,12.84,33.9
88.19,-0.15,0.642,9.947769083651966,19.00658278118094,93,12.81,33.86
88.26,0.143,0.849,9.947964796163179,19.006634284931565,93,12.8,33.87
88.32,-0.054,0.559,9.948160348041865,19.006685615982775,93,12.87,33.94
88.39,0.154,0.497,9.948355739310202,19.00673677440194,93,12.87,33.98
88.45,-0.05,0.829,9.948550969990357,19.00678776025642,93,12.86,34.06
88.52,-0.107,0.642,9.948746040104504,19.006838573613585,91,12.78,34.18
88.58,-0.106,0.622,9.94894094967482,19.006889214540788,91,12.8,34.35
88.65,-0.076,0.808,9.949135698723467,19.006939683105408,91,12.82,34.51
88.71,-0.11,0.601,9.949330287272629,19.0069899793748,91,12.81,34.84
88.77,-0.092,0.642,9.94952471534447,19.00704010341634,91,12.83,35.07
88.84,0.092,0.622,9.949718982961167,19.00709005529738,91,12.8,35.35
88.9,-0.047,0.58,9.949913090144895,19.007139835085283,91,12.82,35.66
88.97,0.095,0.477,9.950107036917823,19.007189442847434,91,12.82,35.91
89.03,0.205,0.311,9.95030082330212,19.00723887865118,91,12.8,36.15
89.1,-0.029,0.269,9.950494449319963,19.007288142563887,91,12.81,36.39
89.16,-0.083,0.269,9.950687914993527,19.007337234652926,104,12.87,36.55
89.23,-0.072,0.186,9.95088122034498,19.007386154985667,104,12.92,36.64
89.29,-0.056,0.207,9.951074365396497,19.007434903629456,104,12.92,36.56
89.35,-0.066,0.352,9.95126735017025,19.00748348065168,104,12.9,36.43
89.42,-0.109,0.207,9.951460174688412,19.007531886119686,104,12.88,36.31
89.48,0.174,0.29,9.951652838973155,19.007580120100844,104,12.86,36.35
89.55,-0.016,0.269,9.95184534304665,19.007628182662526,104,12.9,36.47
89.61,0.102,0.166,9.952037686931073,19.00767607387209,104,12.98,36.47
89.68,0.253,0.186,9.952229870648594,19.007723793796906,104,12.98,36.49
89.74,0.015,0.186,9.952421894221386,19.007771342504334,104,13.01,36.45
89.81,-0.059,0.166,9.952613757671623,19.007818720061742,91,13.0,36.41
89.87,-0.051,0.186,9.952805461021477,19.007865926536493,91,12.94,36.3
89.94,-0.044,0.166,9.952997004293122,19.00791296199594,91,12.9,36.1
90.0,-0.037,0.29,9.953188387508726,19.007959826507477,91,12.87,35.82
90.06,-0.111,0.166,9.953379610690462,19.008006520138448,91,12.88,35.62
90.13,0.206,0.394,9.95357067386051,19.008053042956217,91,12.83,35.49
90.19,0.071,0.207,9.953761577041037,19.008099395028157,91,12.82,35.5
90.26,0.131,0.166,9.953952320254215,19.00814557642163,91,12.82,35.45
90.32,0.26,0.124,9.954142903522216,19.008191587204003,91,12.84,35.36
90.39,0.037,0.166,9.954333326867218,19.008237427442634,91,12.87,35.29
90.45,-0.054,0.124,9.95452359031139,19.008283097204888,91,12.92,35.26
90.52,-0.054,0.124,9.954713693876899,19.00832859655814,91,12.8,35.2
90.58,-0.064,0.145,9.95490363758593,19.008373925569753,91,12.76,35.2
90.65,-0.033,0.186,9.955093421460646,19.008419084307082,91,12.86,35.06
90.71,-0.091,0.186,9.955283045523222,19.008464072837505,91,12.97,34.97
90.77,0.209,0.352,9.95547250979583,19.00850889122837,91,12.970967741935484,35.06
90.84,-0.059,0.269,9.955661814300647,19.00855353954706,91,12.971935483870968,35.26
90.9,0.06,0.186,9.95585095905984,19.008598017860926,91,12.972903225806451,35.54
90.97,0.243,0.166,9.956039944095584,19.00864232623734,91,12.973870967741936,35.64
91.03,0.17,0.145,9.956228769430052,19.00868646474366,91,12.97483870967742,35.64
91.1,-0.013,0.145,9.956417435085413,19.008730433447266,91,12.975806451612904,35.86
91.16,0.008,0.186,9.956605941083845,19.008774232415504,90,12.976774193548387,36.2
91.23,0.009,0.124,9.956794287447519,19.008817861715755,90,12.977741935483872,36.38
91.29,0.056,0.124,9.956982474198604,19.008861321415374,90,12.978709677419355,36.23
91.35,0.014,0.207,9.957170501359274,19.00890461158173,90,12.97967741935484,35.93
91.42,0.229,0.331,9.95735836895171,19.008947732282184,90,12.980645161290322,35.7
91.48,0.086,0.186,9.95754607699807,19.008990683584102,90,12.981612903225807,35.65
91.55,0.128,0.145,9.95773362552054,19.009033465554857,90,12.98258064516129,35.58
91.61,0.272,0.145,9.95792101454128,19.0090760782618,90,12.983548387096775,35.47
91.68,0.307,0.166,9.958108244082476,19.0091185217723,90,12.984516129032258,35.26
91.74,0.048,0.166,9.95829531416629,19.009160796153733,90,12.985483870967743,35.2
91.81,0.026,0.166,9.958482224814901,19.009202901473458,90,12.986451612903226,35.16
91.87,0.007,0.166,9.958668976050477,19.009244837798835,90,12.98741935483871,35.14
91.94,0.013,0.207,9.958855567895188,19.00928660519723,89,12.988387096774193,35.07
92.0,-0.006,0.145,9.959042000371218,19.00932820373601,89,12.989354838709678,34.91
92.06,-0.029,0.228,9.959228273500731,19.009369633482535,89,12.990322580645161,34.86
92.13,0.179,0.311,9.9594143873059,19.009410894504175,89,12.991290322580646,34.89
92.19,0.04,0.166,9.959600341808903,19.0094519868683,89,12.992258064516129,34.94
92.26,0.152,0.166,9.959786137031907,19.009492910642262,89,12.993225806451614,34.96
92.32,0.276,0.166,9.959971772997086,19.009533665893436,89,12.994193548387097,35.02
92.39,0.029,0.145,9.960157249726612,19.009574252689184,89,12.995161290322581,35.13
92.45,-0.022,0.145,9.960342567242657,19.009614671096873,91,12.996129032258064,35.32
92.52,-0.023,0.124,9.960527725567395,19.009654921183866,91,12.99709677419355,35.51
92.58,-0.002,0.186,9.960712724723,19.009695003017523,91,12.998064516129032,35.68
92.65,-0.047,0.145,9.960897564731642,19.009734916665213,91,12.999032258064517,35.7
92.71,0.108,0.29,9.961082245615499,19.009774662194303,91,13.0,35.94
92.77,-0.027,0.207,9.961266767396735,19.009814239672153,91,13.000967741935483,36.26
92.84,0.024,0.145,9.961451130097526,19.009853649166136,91,13.001935483870968,36.65
92.9,0.171,0.145,9.961635333740047,19.009892890743604,91,13.00290322580645,37.0
92.97,0.211,0.145,9.96181937834647,19.00993196447194,91,13.003870967741936,37.27
93.03,-0.038,0.124,9.962003263938968,19.009970870418492,91,13.004838709677419,37.52
93.1,-0.059,0.207,9.96218699053971,19.01000960865063,94,13.005806451612903,37.72
93.16,-0.044,0.166,9.962370558170873,19.010048179235728,94,13.006774193548386,37.89
93.23,-0.038,0.145,9.962553966854625,19.010086582241133,94,13.007741935483871,38.03
93.29,-0.118,0.186,9.96273721661314,19.010124817734226,94,13.008709677419354,38.13
93.35,0.13,0.331,9.962920307468595,19.010162885782364,94,13.009677419354839,38.27
93.42,-0.035,0.145,9.963103239443157,19.010200786452913,94,13.010645161290322,38.41
93.48,0.079,0.186,9.963286012559001,19.01023851981324,94,13.011612903225807,38.49
93.55,0.237,0.207,9.9634686268383,19.01027608593071,94,13.01258064516129,38.45
93.61,0.03,0.166,9.963651082303226,19.010313484872686,94,13.013548387096774,38.26
93.68,-0.067,0.186,9.963833378975954,19.01035071670653,99,13.014516129032257,38.04
93.74,-0.055,0.145,9.96401551687865,19.010387781499613,99,13.015483870967742,37.8
93.81,-0.035,0.186,9.964197496033492,19.010424679319293,99,13.016451612903225,37.56
93.87,-0.063,0.145,9.964379316462649,19.010461410232946,99,13.01741935483871,37.22
93.94,-0.048,0.228,9.964560978188302,19.010497974307924,99,13.018387096774193,36.95
94.0,0.126,0.331,9.964742481232614,19.010534371611595,99,13.019354838709678,36.8
94.06,0.002,0.166,9.964923825617763,19.010570602211335,99,13.02032258064516,36.74
94.13,0.124,0.145,9.965105011365917,19.010606666174493,99,13.021290322580645,36.57
94.19,0.226,0.166,9.965286038499254,19.01064256356845,99,13.022258064516128,36.33
94.26,-0.029,0.124,9.965466907039941,19.010678294460558,99,13.023225806451613,36.17
94.32,-0.068,0.145,9.965647617010157,19.010713858918184,95,13.024193548387096,36.02
94.39,-0.065,0.186,9.96582816843207,19.010749257008694,95,13.02516129032258,35.86
94.45,-0.034,0.207,9.966008561327854,19.010784488799462,95,13.026129032258064,35.68
94.52,-0.092,0.166,9.966188795719678,19.010819554357834,95,13.027096774193549,35.4
94.58,0.12,0.311,9.96636887162972,19.01085445375119,95,13.028064516129032,35.28
94.65,-0.046,0.228,9.966548789080154,19.010889187046892,95,13.029032258064516,35.21
94.71,0.0,0.166,9.966728548093144,19.010923754312294,95,13.03,35.22
94.77,0.142,0.124,9.96690814869087,19.010958155614784,95,13.01,35.18
94.84,0.164,0.145,9.9670875908955,19.0109923910217,95,12.8975,35.09
94.9,-0.081,0.166,9.967266874729214,19.01102646060043,95,12.785,35.02
94.97,-0.093,0.166,9.967446000214174,19.011060364418327,95,12.6725,35.01
95.03,-0.097,0.186,9.96762496737256,19.011094102542753,95,12.56,35.0
95.1,-0.061,0.186,9.967803776226544,19.01112767504108,95,12.32,34.96
95.16,-0.122,0.186,9.967982426798295,19.01116108198067,95,12.37,34.87
95.23,0.13,0.331,9.96816091910999,19.01119432342889,95,12.4775,34.82
95.29,-0.103,0.228,9.968339253183796,19.0112273994531,95,12.585,34.85
95.35,-0.028,0.145,9.968517429041894,19.011260310120676,95,12.6925,34.91
95.42,0.126,0.145,9.968695446706446,19.011293055498967,93,12.8,34.95
95.48,0.125,0.166,9.968873306199637,19.01132563565535,93,12.77,35.02
95.55,-0.105,0.124,9.969051007543628,19.01135805065719,93,12.84,35.17
95.61,-0.116,0.166,9.969228550760596,19.011390300571836,93,13.0,35.37
95.68,-0.117,0.166,9.969405935872716,19.011422385466673,93,13.0,35.62
95.74,-0.094,0.145,9.969583162902158,19.011454305409053,93,13.0,35.78
95.81,-0.168,0.124,9.969760231871094,19.011486060466343,93,13.0,35.97
95.87,0.081,0.373,9.9699371428017,19.011517650705915,93,13.0,36.31
95.94,-0.151,0.145,9.970113895716144,19.011549076195127,93,13.0,36.68
96.0,-0.029,0.166,9.970290490636602,19.011580337001348,93,13.0,37.01
96.06,0.143,0.207,9.970466927585244,19.01161143319194,95,13.0,37.31
96.13,-0.003,0.166,14.894,19.01164236483427,95,13.0,37.61
96.19,-0.161,0.145,14.86,19.0116731319957,95,13.0,37.95
96.26,-0.158,0.166,14.831,19.011703734743595,95,13.0,38.29
96.32,-0.116,0.124,14.79,19.011734173145324,95,13.0,38.56
96.39,-0.173,0.166,14.745,19.01176444726825,95,13.0,38.68
96.45,-0.004,0.29,14.67,19.01179455717973,95,13.0,38.86
96.52,-0.143,0.207,14.571,19.011824502947142,95,13.0,39.07
96.58,-0.076,0.124,14.45,19.011854284637845,95,13.0,39.29
96.65,0.077,0.166,14.35,19.011883902319198,99,13.0,39.42
96.71,0.116,0.166,14.307,19.011913356058574,99,13.0,39.35
96.77,-0.12,0.145,14.345,19.01194264592334,99,13.0,39.13
96.84,-0.138,0.166,14.438,19.011971771980853,99,13.0,38.96
96.9,-0.123,0.124,14.525,19.012000734298482,99,13.0,38.8
96.97,-0.088,0.186,14.618,19.01202953294359,99,13.0,38.54
97.03,-0.156,0.166,14.664,19.012058167983547,99,13.0,38.22
97.1,0.145,0.29,14.791,19.01208663948571,99,13.0,37.97
97.16,-0.147,0.186,14.91,19.012114947517443,99,13.0,37.71
97.23,-0.009,0.186,9.973615804757307,19.01214309214612,99,13.0,37.45
97.29,0.169,0.145,9.973789244454265,19.0121710734391,96,13.0,37.08
97.35,0.068,0.124,9.973962526622863,19.01219889146375,96,13.0,36.73
97.42,-0.114,0.145,9.974135651285273,19.012226546287433,96,13.0,36.43
97.48,-0.11,0.166,9.974308618463663,19.012254037977524,96,13.0,36.14
97.55,-0.113,0.145,9.97448142818021,19.012281366601375,96,13.0,35.83
97.61,-0.074,0.166,9.974654080457082,19.012308532226346,96,13.0,35.47
97.68,-0.144,0.145,9.974826575316456,19.012335534919817,96,13.0,35.21
97.74,0.162,0.29,9.974998912780503,19.01236237474915,96,13.0,35.03
97.81,-0.139,0.166,9.975171092871395,19.0123890517817,96,13.0,34.94
97.87,-0.011,0.124,9.975343115611302,19.01241556608484,96,13.0,34.9
97.94,0.162,0.124,9.975514981022405,19.012441917725937,96,13.0,34.82
98.0,0.093,0.145,9.97568668912687,19.01246810677235,96,13.0,34.77
98.06,-0.112,0.186,9.975858239946872,19.01249413329144,91,13.0,34.76
98.13,-0.112,0.145,9.976029633504579,19.012519997350584,91,13.0,34.74
98.19,-0.118,0.166,9.97620086982217,19.012545699017142,91,13.0,34.72
98.26,-0.093,0.145,9.976371948921813,19.012571238358476,91,13.0,34.6
98.32,-0.125,0.166,9.976542870825682,19.012596615441954,91,13.0,34.48
98.39,-0.068,0.269,9.976713635555948,19.012621830334936,91,13.0,34.45
98.45,0.037,0.249,14.919,19.01264688310479,91,12.98,34.49
98.52,-0.048,0.145,14.914,19.01267177381888,91,12.92,34.55
98.58,0.087,0.145,14.917,19.01269650254457,91,12.9,34.55
98.65,0.175,0.124,14.925,19.01272106934924,91,12.9,34.55
98.71,-0.091,0.124,9.977565102379314,19.012745474300228,91,12.93,34.57
98.77,-0.126,0.145,9.9777349245336,19.012769717464927,89,12.94,34.63
98.84,-0.127,0.186,9.97790458966949,19.012793798910675,89,12.94,34.71
98.9,-0.142,0.104,9.978074097809166,19.012817718704852,89,12.97,34.81
98.97,-0.157,0.166,9.97824344897479,19.012841476914822,89,13.03,34.85
99.03,-0.103,0.166,9.978412643188541,19.012865073607944,89,13.03,35.07
99.1,-0.165,0.166,9.978581680472585,19.0128885088516,89,13.03,35.35
99.16,0.123,0.331,9.978750560849104,19.01291178271312,89,12.99,35.68
99.23,-0.185,0.228,9.978919284340263,19.012934895259907,89,12.99,35.94
99.29,-0.045,0.124,9.979087850968234,19.012957846559306,89,12.99,36.2
99.35,0.115,0.124,9.979256260755196,19.012980636678684,80,13.0,36.49
99.42,0.065,0.166,9.97942451372332,19.01300326568541,80,13.0,36.79
99.48,-0.147,0.145,9.979592609894777,19.013025733646845,80,12.97,37.11
99.55,-0.156,0.145,9.979760549291735,19.01304804063036,80,12.95,37.4
99.61,-0.152,0.186,9.979928331936375,19.013070186703306,80,12.95,37.69
99.68,-0.176,0.166,9.980095957850864,19.013092171933064,80,12.94,37.82
99.74,-0.137,0.166,9.980263427057375,19.013113996386984,80,12.94,37.99
99.81,-0.191,0.166,9.980430739578084,19.013135660132445,80,12.94,38.26
99.87,0.06,0.331,9.980597895435164,19.013157163236805,80,13.0,38.55
99.94,-0.198,0.228,9.980764894650777,19.01317850576743,80,12.997857142857143,38.8
100.0,-0.074,0.145,9.980931737247111,19.013199687791683,80,12.995714285714286,39.01
100.06,0.081,0.145,9.981098423246328,19.013220709376927,83,12.993571428571428,39.21
100.13,0.105,0.104,9.981264952670605,19.013241570590537,83,12.991428571428571,39.41
100.19,-0.127,0.145,9.981431325542117,19.013262271499862,83,12.989285714285714,39.57
100.26,-0.138,0.104,9.981597541883026,19.01328281217228,83,12.987142857142857,39.63
100.32,-0.125,0.145,9.981763601715514,19.013303192675153,83,12.985000000000001,39.53
100.39,-0.137,0.145,9.981929505061753,19.013323413075845,83,12.982857142857144,39.27
100.45,-0.091,0.166,9.98209525194391,19.013343473441722,83,12.980714285714287,38.97
100.52,-0.143,0.124,9.982260842384166,19.013363373840146,83,12.97857142857143,38.77
100.58,0.176,0.311,9.982426276404688,19.013383114338477,83,12.976428571428572,38.59
100.65,-0.143,0.207,9.982591554027648,19.0134026950041,83,12.974285714285715,38.42
100.71,0.004,0.166,9.982756675275219,19.013422115904355,83,12.972142857142858,38.25
100.77,0.188,0.124,9.982921640169577,19.013441377106624,83,12.97,38.08
100.84,0.105,0.124,9.983086448732891,19.013460478678258,83,12.92,37.87
100.9,-0.095,0.104,9.983251100987339,19.013479420686632,85,12.95,37.64
100.97,-0.092,0.145,9.983415596955084,19.01349820319911,85,12.88,37.41
101.03,-0.084,0.124,9.983579936658305,19.013516826283055,85,12.86,37.17
101.1,-0.095,0.186,9.983744120119177,19.013535290005834,85,12.82,36.82
101.16,-0.051,0.166,9.983908147359866,19.013553594434807,85,12.78,36.49
101.23,-0.091,0.124,9.984072018402548,19.013571739637342,85,12.7,36.25
101.29,0.128,0.29,9.984235733269399,19.01358972568081,85,12.95,36.04
101.35,-0.039,0.186,9.984399291982587,19.013607552632564,85,12.97,35.86
101.42,0.008,0.124,9.984562694564282,19.01362522055998,85,12.88,35.68
101.48,0.166,0.145,9.984725941036663,19.01364272953041,85,12.98,35.54
101.55,0.219,0.124,9.9848890314219,19.013660079611228,85,12.77,35.41
101.61,-0.052,0.145,9.985051965742166,19.013677270869806,85,12.71,35.34
101.68,-0.071,0.124,9.985214744019629,19.01369430337349,82,12.75,35.25
101.74,-0.065,0.145,9.98537736627647,19.01371117718966,82,12.75,35.17
101.81,-0.082,0.124,9.985539832534855,19.01372789238567,82,12.69,35.04
101.87,-0.084,0.124,9.98570214281696,19.013744449028895,82,12.67,34.85
101.94,-0.042,0.124,9.985864297144955,19.013760847186703,82,12.67,34.78
102.0,-0.104,0.145,9.986026295541016,19.013777086926442,82,12.66,34.77
102.06,0.19,0.249,9.98618813802731,19.01379316831549,82,12.66,34.83
102.13,-0.083,0.166,9.98634982462602,19.01380909142121,82,12.66,34.84
102.19,0.04,0.145,9.986511355359305,19.01382485631096,82,12.66,34.82
102.26,0.23,0.186,9.986672730249348,19.013840463052112,82,12.66,34.79
102.32,0.137,0.104,9.986833949318315,19.013855911712028,82,12.66,34.76
102.39,-0.068,0.145,9.986995012588386,19.01387120235808,80,12.66,34.79
102.45,-0.066,0.186,14.883,19.013886335057617,80,12.66,34.85
102.52,-0.07,0.124,14.833,19.01390130987802,80,12.66,34.9
102.58,-0.084,0.145,14.786,19.013916126886645,80,12.66,34.78
102.65,-0.076,0.145,14.736,19.013930786150862,80,12.65,34.64
102.71,-0.046,0.124,14.688,19.01394528773803,80,12.65,34.61
102.77,-0.114,0.124,14.642,19.013959631715515,80,12.65,34.7
102.84,0.167,0.331,14.596,19.013973818150692,80,12.65,34.76
102.9,-0.038,0.145,14.551,19.013987847110915,80,12.65,34.72
102.97,0.058,0.104,14.506,19.01400171866355,80,12.65,34.75
103.03,0.24,0.166,14.464,19.01401543287596,80,12.65,34.9
103.1,0.053,0.124,14.422,19.014028989815518,80,12.65,35.13
103.16,-0.089,0.124,14.381,19.014042389549587,78,12.65,35.4
103.23,-0.086,0.166,14.344,19.014055632145524,78,12.65,35.64
103.29,-0.095,0.124,14.306,19.014068717670703,78,12.65,35.85
103.35,-0.106,0.145,14.268,19.014081646192484,78,12.65,35.9
103.42,-0.069,0.124,14.232,19.014094417778228,78,12.65,36.12
103.48,-0.136,0.104,14.195,19.01410703249531,78,12.65,36.52
103.55,0.13,0.311,14.161,19.01411949041109,78,12.65,36.94
103.61,-0.114,0.124,14.128,19.01413179159293,78,12.65,37.24
103.68,0.018,0.145,14.096,19.0141439361082,78,12.65,37.46
103.74,0.201,0.145,14.064,19.014155924024255,78,12.65,37.73
103.81,0.063,0.145,14.03,19.014167755408476,78,12.65,38.0
103.87,-0.108,0.145,13.998,19.01417943032822,83,12.65,38.28
103.94,-0.108,0.124,13.965,19.014190948850842,83,12.65,38.59
104.0,-0.078,0.269,13.937,19.01420231104372,83,12.65,38.84
104.06,-0.08,0.228,13.907,19.014213516974213,83,12.65,38.92
104.13,-0.137,0.124,13.88,19.01422456670969,83,12.65,39.03
104.19,0.156,0.228,13.85,19.014235460317515,83,12.65,39.25
104.26,-0.189,0.228,13.82,19.014246197865045,83,12.65,39.5
104.32,-0.01,0.124,13.763,19.014256779419657,83,12.65,39.8
104.39,0.163,0.104,13.761,19.01426720504871,83,12.65,39.82
104.45,0.125,0.104,13.733,19.014277474819572,83,12.64,39.85
104.52,-0.095,0.124,13.704,19.014287588799597,91,12.62,39.78
104.58,-0.097,0.124,13.677,19.014297547056163,91,12.62,39.7
104.65,-0.092,0.166,13.645,19.014307349656622,91,12.62,39.57
104.71,-0.051,0.166,13.617,19.014316996668356,91,12.62,39.33
104.77,-0.113,0.124,13.589,19.014326488158716,91,12.62,39.06
104.84,0.187,0.29,13.562,19.01433582419507,91,12.62,38.88
104.9,-0.132,0.269,13.533,19.014345004844788,91,12.62,38.71
104.97,0.012,0.124,13.507,19.014354030175227,91,12.62,38.52
105.03,0.187,0.124,13.481,19.014362900253758,91,12.62,38.26
105.1,0.176,0.124,13.455,19.014371615147745,91,12.62,38.03
105.16,-0.062,0.145,13.428,19.014380174924547,91,12.62,37.82
105.23,-0.069,0.145,13.403,19.014388579651538,91,12.62,37.61
105.29,-0.06,0.166,13.378,19.014396829396077,91,12.62,37.36
105.35,-0.025,0.166,13.353,19.01440492422553,91,12.62,37.01
105.42,-0.071,0.124,13.328,19.014412864207266,91,12.62,36.67
105.48,0.07,0.352,13.305,19.014420649408635,91,12.62,36.43
105.55,0.055,0.311,13.281,19.01442827989702,91,12.62,36.23
105.61,0.023,0.124,13.256,19.01443575573978,91,12.61,36.08
105.68,0.173,0.104,13.233,19.014443077004277,91,12.61,35.88
105.74,0.249,0.166,13.209,19.01445024375787,91,12.61,35.74
105.81,-0.02,0.124,13.188,19.014457256067946,91,12.61,35.63
105.87,-0.047,0.145,13.164,19.014464114001846,91,12.61,35.53
105.94,-0.045,0.124,13.141,19.014470817626947,91,12.61,35.46
106.0,-0.035,0.124,13.117,19.01447736701061,91,12.61,35.35
106.06,-0.017,0.166,13.093,19.014483762220202,91,12.61,35.15
106.13,-0.087,0.166,13.071,19.01449000332308,91,12.6,35.03
106.19,0.215,0.311,13.05,19.01449609038663,91,12.61,34.97
106.26,0.001,0.166,13.027,19.014502023478187,91,12.6,34.99
106.32,0.106,0.124,13.005,19.014507802665136,91,12.6,34.96
106.39,0.29,0.124,12.983,19.014513428014848,91,12.6,34.95
106.45,0.079,0.145,12.96,19.014518899594663,91,12.6,34.97
106.52,-0.042,0.124,12.939,19.014524217471966,89,12.6,34.98
106.58,-0.038,0.124,12.919,19.01452938171412,89,12.6,34.94
106.65,-0.043,0.124,12.899,19.01453439238848,89,12.6,34.9
106.71,-0.046,0.145,12.881,19.014539249562418,89,12.6,34.78
106.77,-0.016,0.145,12.863,19.014543953303296,89,12.6,34.84
106.84,-0.086,0.166,12.848,19.01454850367848,89,12.6,34.87
106.9,0.197,0.311,12.837,19.014552900755337,89,12.6,34.9
106.97,-0.021,0.207,12.827,19.014557144601238,89,12.6,34.91
107.03,0.076,0.166,12.821,19.014561235283534,89,12.6,34.91
107.1,0.261,0.166,12.82,19.01456517286959,89,12.6,34.98
107.16,0.093,0.124,12.823,19.014568957426782,89,12.6,35.15
107.23,-0.055,0.166,12.829,19.014572589022475,83,12.6,35.4
107.29,-0.058,0.166,12.841,19.01457606772402,83,12.6,35.67
107.35,-0.062,0.145,12.856,19.01457939359879,83,12.6,35.95
107.42,-0.07,0.124,12.875,19.01458256671415,83,12.6,36.06
107.48,-0.044,0.145,12.898,19.01458558713747,83,12.6,36.28
107.55,-0.112,0.166,12.926,19.01458845493611,83,12.6,36.58
107.61,0.15,0.331,12.954,19.01459117017744,83,12.6,36.97
107.68,-0.079,0.166,12.984,19.01459373292881,83,12.6,37.28
107.74,0.044,0.145,13.016,19.0145961432576,83,12.6,37.58
107.81,0.223,0.207,13.047,19.01459840123117,83,12.6,37.88
107.87,0.07,0.145,13.079,19.014600506916878,83,12.6,38.19
107.94,-0.09,0.166,13.11,19.0146024603821,84,12.6,38.49
108.0,-0.083,0.104,13.14,19.014604261694195,84,12.6,38.79
108.06,-0.087,0.124,13.167,19.014605910920533,84,12.59,39.03
108.13,-0.064,0.145,13.194,19.01460740812847,84,12.59,39.15
108.19,-0.104,0.166,13.219,19.01460875338538,84,12.59,39.3
108.26,-0.042,0.249,13.24,19.014609946758625,84,12.59,39.47
108.32,0.046,0.228,13.26,19.014610988315564,84,12.59,39.68
108.39,-0.011,0.166,13.278,19.014611878123564,84,12.59,39.77
108.45,0.122,0.104,13.293,19.01461261625,84,12.59,39.74
108.52,0.223,0.145,13.304,19.014613202762227,84,12.59,39.63
108.58,-0.036,0.145,13.314,19.01461363772761,84,12.59,39.53
108.65,-0.081,0.124,13.321,19.01461392121351,87,12.59,39.39
108.71,-0.062,0.145,13.323,19.01461405328731,87,12.59,39.23
108.77,-0.072,0.124,13.326,19.014614034016354,87,12.59,38.95
108.84,-0.068,0.166,13.325,19.014613863468018,87,12.59,38.64
108.9,-0.034,0.145,13.322,19.014613541709668,87,12.59,38.39
108.97,-0.099,0.166,13.317,19.014613068808664,87,12.58,38.16
109.03,0.209,0.29,13.311,19.01461244483237,87,12.58,37.97
109.1,-0.023,0.145,13.301,19.014611669848154,87,12.58,37.7
109.16,0.086,0.124,13.291,19.01461074392338,87,12.58,37.43
109.23,0.273,0.207,13.278,19.014609667125416,87,12.58,37.21
109.29,0.086,0.186,13.263,19.01460843952162,87,12.58,37.02
109.35,-0.051,0.228,13.245,19.014607061179362,81,12.58,36.84
109.42,-0.036,0.124,13.225,19.014605532166005,81,12.58,36.68
109.48,-0.036,0.166,13.201,19.014603852548916,81,12.58,36.54
109.55,-0.048,0.166,13.174,19.01460202239546,81,12.59,36.19
109.61,-0.034,0.104,13.147,19.014600041772997,81,12.58,35.95
109.68,-0.014,0.186,13.122,19.0145979107489,81,12.59,35.71
109.74,-0.081,0.207,13.098,19.01459562939052,81,12.58,35.48
109.81,0.216,0.331,13.081,19.014593197765233,81,12.58,35.27
109.87,0.024,0.145,13.06,19.014590615940406,81,12.58,35.01
109.94,0.121,0.186,13.035,19.0145878839834,81,12.58,34.86
110.0,0.298,0.145,13.014,19.014585001961574,81,12.58,34.81
110.06,0.079,0.145,12.994,19.0145819699423,81,12.58,34.74
110.13,-0.032,0.104,12.975,19.014578787992946,78,12.58,34.65
110.19,-0.03,0.166,12.958,19.014575456180868,78,12.58,34.63
110.26,-0.037,0.124,12.943,19.014571974573432,78,12.58,34.65
110.32,-0.056,0.124,12.928,19.01456834323801,78,12.58,34.51
110.39,-0.063,0.166,12.913,19.01456456224197,78,12.58,34.46
110.45,-0.067,0.166,12.901,19.014560631652657,78,12.58,34.56
110.52,-0.013,0.186,12.892,19.014556551537453,78,12.58,34.64
110.58,-0.077,0.145,12.875,19.01455232196372,78,12.58,34.83
110.65,-0.059,0.145,12.853,19.01454794299882,78,12.58,35.07
110.71,-0.03,0.166,12.835,19.01454341471012,78,12.58,35.23
110.77,0.036,0.145,12.816,19.014538737164987,78,12.58,35.47
110.84,0.202,0.124,12.801,19.01453391043077,78,12.58,35.87
110.9,0.141,0.124,12.787,19.014528934574862,78,12.58,36.26
110.97,-0.079,0.124,12.763,19.014523809664603,78,12.58,37.02
111.03,-0.091,0.104,12.761,19.014518535767372,78,12.58,37.07
111.1,-0.095,0.145,12.749,19.01451311295053,78,12.58,37.45
111.16,-0.112,0.124,12.737,19.01450754128144,78,12.58,37.75
111.23,-0.077,0.145,12.725,19.01450182082747,78,12.58,38.08
111.29,-0.144,0.124,12.717,19.014495951655974,78,12.58,38.46
111.35,0.138,0.249,12.71,19.014489933834337,78,12.58,38.86
111.42,-0.163,0.166,12.707,19.014483767429912,78,12.58,39.19
111.48,0.001,0.124,12.703,19.014477452510057,78,12.58,39.44
111.55,0.184,0.145,12.703,19.014470989142147,78,12.58,39.65
111.61,0.107,0.124,12.707,19.014464377393544,78,12.56,39.87
111.68,-0.09,0.104,12.713,19.01445761733162,78,12.56,40.04
111.74,-0.091,0.124,12.724,19.014450709023727,78,12.56,40.06
111.81,-0.082,0.124,12.736,19.014443652537242,78,12.56,39.86
111.87,-0.076,0.104,12.749,19.014436447939516,78,12.56,39.47
111.94,-0.055,0.124,12.765,19.01442909529793,78,12.56,39.1
112.0,-0.118,0.124,12.783,19.01442159467983,78,12.56,38.84
112.06,0.176,0.228,12.804,19.014413946152597,78,12.56,38.65
112.13,-0.032,0.145,12.825,19.014406149783596,78,12.56,38.44
112.19,0.078,0.124,12.847,19.014398205640184,78,12.56,38.2
112.26,0.267,0.124,12.867,19.014390113789727,78,12.56,37.99
112.32,0.056,0.145,12.887,19.014381874299588,78,12.56,37.82
112.39,-0.064,0.124,12.904,19.014373487237137,86,12.56,37.64
112.45,-0.057,0.124,12.924,19.014364952669734,86,12.56,37.45
112.52,-0.06,0.145,12.942,19.014356270664752,86,12.56,37.23
112.58,-0.072,0.124,12.959,19.014347441289548,86,12.56,36.86
112.65,-0.02,0.166,12.973,19.014338464611487,86,12.55,36.6
112.71,-0.073,0.166,12.986,19.01432934069794,86,12.56,36.42
112.77,0.223,0.331,12.996,19.01432006961627,86,12.55,36.28
112.84,-0.084,0.207,13.005,19.014310651433835,86,12.55,36.14
112.9,0.044,0.124,13.011,19.014301086218005,86,12.55,35.97
112.97,0.204,0.124,13.017,19.01429137403615,86,12.55,35.82
113.03,0.221,0.104,13.022,19.014281514955623,86,12.55,35.69
113.1,-0.032,0.104,13.024,22.604,86,12.55,35.61
113.16,-0.047,0.124,13.024,22.578,80,12.55,35.49
113.23,-0.047,0.186,13.021,22.551,80,12.55,35.38
113.29,-0.063,0.124,13.017,22.526,80,12.55,35.2
113.35,-0.072,0.145,13.015,22.505,80,12.55,34.97
113.42,-0.025,0.145,13.007,22.485,80,12.55,34.87
113.48,-0.064,0.186,13.001,22.465,80,12.55,34.81
113.55,0.122,0.269,12.992,22.443,80,12.55,34.81
113.61,-0.003,0.207,12.983,22.423,80,12.55,34.78
113.68,0.025,0.124,12.974,22.403,80,12.55,34.78
113.74,0.168,0.145,12.961,22.384,80,12.55,34.77
113.81,0.244,0.145,12.95,22.368,80,12.55,34.75
113.87,-0.027,0.145,12.938,22.348,80,12.55,34.73
113.94,-0.056,0.145,12.925,22.331,76,12.55,34.72
114.0,-0.053,0.124,12.91,22.312,76,12.55,34.71
114.06,-0.063,0.104,12.895,22.295,76,12.55,34.67
114.13,-0.076,0.124,12.883,22.279,76,12.55,34.51
114.19,-0.083,0.104,12.868,22.265,76,12.55,34.43
114.26,-0.028,0.145,12.853,22.249,76,12.55,34.43
114.32,-0.087,0.145,12.837,22.232,76,12.55,34.49
114.39,0.209,0.29,12.822,22.215,76,12.55,34.49
114.45,-0.097,0.166,12.806,22.198,76,12.55,34.52
114.52,0.024,0.104,12.791,22.183,76,12.55,34.65
114.58,0.189,0.145,12.776,22.165,76,12.55,34.84
114.65,0.173,0.124,12.76,22.151,76,12.55,35.09
114.71,-0.064,0.104,12.744,22.135,72,12.55,35.34
114.77,-0.079,0.145,12.729,22.118,72,12.55,35.59
114.84,-0.081,0.145,12.714,22.103,72,12.54,35.89
114.9,-0.1,0.124,12.699,22.088,72,12.54,36.05
114.97,-0.112,0.166,12.684,22.073,72,12.54,36.24
115.03,-0.078,0.145,12.669,22.061,72,12.54,36.55
115.1,-0.097,0.124,12.654,22.046,72,12.54,36.91
115.16,-0.031,0.269,12.639,22.032,72,12.54,37.27
115.23,0.155,0.559,12.624,22.019,72,12.53,37.55
115.29,-0.001,0.228,12.61,22.004,72,12.53,37.82
115.35,0.105,0.124,12.596,21.991,72,12.53,38.07
115.42,0.216,0.124,12.582,21.976,72,12.53,38.33
115.48,-0.048,0.145,12.57,21.964,72,12.53,38.61
115.55,-0.095,0.104,12.542,21.938,75,12.53,39.04
115.61,-0.086,0.145,12.541,21.937,75,12.53,39.06
115.68,-0.098,0.104,12.528,21.925,75,12.53,39.13
115.74,-0.058,0.145,12.515,21.915,75,12.53,39.12
115.81,-0.105,0.166,12.501,21.905,75,12.53,39.1
115.87,0.101,0.29,12.488,21.894,75,12.53,39.06
115.94,-0.062,0.186,12.475,21.883,75,12.53,39.09
116.0,0.001,0.166,12.46,21.871,75,12.53,39.08
116.06,0.149,0.124,12.448,21.858,75,12.53,38.97
116.13,0.209,0.104,12.436,21.848,75,12.53,38.83
116.19,-0.051,0.124,12.423,21.835,75,12.53,38.73
116.26,-0.075,0.124,12.411,21.822,85,12.53,38.6
116.32,-0.064,0.124,12.398,21.81,85,12.53,38.43
116.39,-0.071,0.124,12.386,21.796,85,12.53,38.25
116.45,-0.034,0.145,12.373,21.785,85,12.53,38.03
116.52,-0.078,0.145,12.362,21.775,85,12.53,37.85
116.58,0.112,0.249,12.351,21.766,85,12.53,37.65
116.65,-0.008,0.207,12.339,21.754,85,12.53,37.5
116.71,0.017,0.145,12.327,21.743,85,12.53,37.31
116.77,0.167,0.145,12.315,21.731,85,12.53,37.15
116.84,0.236,0.104,12.305,21.721,85,12.53,36.98
116.9,-0.027,0.104,12.294,21.711,85,12.53,36.82
116.97,-0.049,0.145,12.282,21.703,84,12.53,36.67
117.03,-0.04,0.124,12.271,21.7,84,12.53,36.56
117.1,-0.043,0.145,12.262,21.701,84,12.53,36.37
117.16,-0.003,0.166,12.25,21.711,84,12.53,36.11
117.23,-0.069,0.124,12.243,21.729,84,12.53,35.96
117.29,0.23,0.352,12.232,21.754,84,12.53,35.83
117.35,-0.051,0.145,12.223,21.785,84,12.53,35.75
117.42,0.074,0.124,12.213,21.82,84,12.53,35.64
117.48,0.261,0.145,12.202,21.859,84,12.53,35.55
117.55,0.167,0.104,12.193,21.898,84,12.53,35.48
117.61,-0.031,0.124,12.183,21.937,87,12.53,35.43
117.68,-0.03,0.145,12.175,21.975,87,12.53,35.35
117.74,-0.032,0.145,12.166,22.011,87,12.53,35.29
117.81,-0.031,0.124,12.158,22.045,87,12.53,35.15
117.87,-0.005,0.186,12.152,22.075,87,12.53,34.97
117.94,-0.073,0.145,12.147,22.101,87,12.53,34.9
118.0,0.198,0.414,12.142,22.121,87,12.53,34.88
118.06,-0.021,0.145,12.14,22.134,87,12.53,34.88
118.13,0.081,0.124,12.139,22.144,87,12.53,34.83
118.19,0.268,0.124,12.139,22.15,87,12.53,34.81
118.26,0.113,0.124,12.14,22.15,87,12.53,34.81
118.32,-0.054,0.145,12.142,22.144,85,12.53,34.83
118.39,-0.049,0.145,12.147,22.136,85,12.53,34.81
118.45,-0.057,0.124,12.152,22.123,85,12.53,34.8
118.52,-0.059,0.145,12.157,22.107,85,12.53,34.72
118.58,-0.043,0.186,12.163,22.091,85,12.53,34.61
118.65,-0.115,0.166,12.171,22.072,85,12.53,34.63
118.71,0.166,0.352,12.18,22.051,85,12.53,34.77
118.77,-0.043,0.145,12.187,22.026,85,12.53,34.96
118.84,0.05,0.104,12.195,22.004,85,12.51,35.13
118.9,0.228,0.124,12.202,21.979,85,12.53,35.36
118.97,0.045,0.104,12.209,21.957,85,12.51,35.67
119.03,-0.099,0.145,12.218,21.932,84,12.53,35.99
119.1,-0.101,0.166,12.224,21.909,84,12.53,36.3
119.16,-0.109,0.124,12.229,21.886,84,12.51,36.62
119.23,-0.095,0.145,12.235,21.866,84,12.53,36.81
119.29,-0.116,0.186,12.242,21.848,84,12.51,37.09
119.35,-0.144,0.186,12.246,21.835,84,12.51,37.47
119.42,0.059,0.29,12.248,21.821,84,12.51,37.86
119.48,-0.072,0.166,12.251,21.811,84,12.51,38.19
119.55,0.042,0.186,12.253,21.805,84,12.51,38.47
119.61,0.184,0.145,12.256,21.802,86,12.51,38.73
119.68,-0.072,0.124,12.253,21.802,86,12.51,39.02
119.74,-0.145,0.166,12.256,21.802,86,12.51,39.32
119.81,-0.129,0.124,12.253,21.804,86,12.51,39.58
119.87,-0.123,0.145,12.253,21.807,86,12.51,39.75
119.94,-0.104,0.145,12.251,21.812,86,12.51,39.8
120.0,-0.166,0.186,12.248,21.817,86,12.51,39.93
120.06,0.107,0.29,12.244,21.821,86,12.5,40.0
120.13,-0.113,0.145,12.239,21.821,86,12.5,39.96
120.19,0.01,0.124,12.236,21.821,86,12.5,39.79
120.26,0.195,0.186,12.232,21.817,86,12.5,39.56
120.32,0.034,0.166,12.225,21.812,86,12.5,39.32
120.39,-0.108,0.104,12.219,21.806,90,12.5,39.13
120.45,-0.095,0.145,12.212,21.799,90,12.5,38.96
120.52,-0.093,0.145,12.204,21.788,90,12.5,38.76
120.58,-0.103,0.124,12.198,21.778,90,12.5,38.45
120.65,-0.053,0.207,12.189,21.769,90,12.5,38.18
120.71,-0.114,0.166,12.182,21.761,90,12.5,37.94
120.77,0.208,0.29,12.175,21.754,90,12.5,37.74
120.84,-0.118,0.186,12.167,21.748,90,12.5,37.53
120.9,0.021,0.145,12.158,21.74,90,12.5,37.3
120.97,0.2,0.104,12.151,21.738,90,12.5,37.08
121.03,0.145,0.145,12.143,21.735,90,12.5,36.87
121.1,-0.071,0.145,12.133,21.734,82,12.5,36.66
121.16,-0.074,0.145,12.126,21.737,82,12.5,36.43
121.23,-0.069,0.124,12.118,21.74,82,12.5,36.23
121.29,-0.081,0.104,12.11,21.749,82,12.5,35.92
121.35,-0.069,0.145,12.101,21.758,82,12.5,35.62
121.42,-0.056,0.166,12.094,21.775,82,12.5,35.46
121.48,-0.117,0.145,12.085,21.788,82,12.49,35.35
121.55,0.172,0.311,12.078,21.802,82,12.5,35.29
121.61,-0.028,0.166,12.069,21.817,82,12.49,35.18
121.68,0.07,0.145,12.061,21.831,82,12.49,35.1
121.74,0.262,0.124,12.054,21.843,82,12.49,35.05
121.81,0.061,0.104,12.046,21.85,82,12.49,35.0
121.87,-0.065,0.124,12.039,21.855,80,12.49,34.95
121.94,-0.057,0.124,12.031,21.856,80,12.49,34.89
122.0,-0.063,0.145,12.025,21.855,80,12.49,34.86
122.06,-0.076,0.145,12.018,21.85,80,12.49,34.71
122.13,-0.082,0.166,12.013,21.841,80,12.49,34.6
122.19,-0.082,0.145,12.008,21.831,80,12.49,34.58
122.26,-0.033,0.186,12.003,21.82,80,12.49,34.61
122.32,-0.084,0.145,11.997,21.807,80,12.49,34.68
122.39,0.23,0.311,11.991,21.793,80,12.49,34.75
122.45,-0.079,0.207,11.988,21.779,80,12.49,34.86
122.52,0.037,0.166,11.983,21.766,80,12.48,35.05
122.58,0.197,0.124,11.978,21.756,80,12.48,35.29
122.65,0.196,0.145,11.973,21.746,80,12.48,35.58
122.71,-0.05,0.124,11.971,21.736,80,12.48,35.93
122.77,-0.066,0.124,11.966,21.729,69,12.48,36.28
122.84,-0.065,0.166,11.962,21.721,69,12.49,36.62
122.9,-0.08,0.166,11.958,21.714,69,12.49,36.81
122.97,-0.08,0.166,11.953,21.708,69,12.49,37.01
123.03,-0.058,0.166,11.951,21.702,69,12.48,37.33
123.1,-0.121,0.145,11.946,21.694,69,12.49,37.7
123.16,0.147,0.228,11.941,21.686,69,12.49,38.05
123.23,-0.086,0.166,11.938,21.677,69,12.49,38.28
123.29,0.029,0.124,11.933,21.667,69,12.49,38.51
123.35,0.215,0.166,11.928,21.657,69,12.49,38.71
123.42,0.064,0.124,11.926,21.643,69,12.49,38.93
123.48,-0.101,0.166,11.921,21.631,79,12.49,39.18
123.55,-0.1,0.124,11.918,21.615,79,12.49,39.4
123.61,-0.09,0.124,11.914,21.599,79,12.49,39.52
123.68,-0.078,0.145,11.909,21.584,79,12.49,39.53
123.74,-0.071,0.145,11.906,21.566,79,12.48,39.52
123.81,-0.13,0.186,11.901,21.55,79,12.49,39.4
123.87,0.16,0.373,11.899,21.534,79,12.48,39.24
123.94,-0.039,0.124,11.894,21.517,79,12.49,39.03
124.0,0.069,0.104,11.891,21.5,79,12.49,38.79
124.06,0.258,0.166,11.886,21.489,79,12.48,38.54
124.13,0.04,0.145,11.883,21.484,79,12.48,38.32
124.19,-0.075,0.145,11.879,21.487,85,12.48,38.14
124.26,-0.066,0.145,11.874,21.501,85,12.48,37.94
124.32,-0.065,0.145,11.869,21.529,85,12.48,37.72
124.39,-0.076,0.145,11.864,21.569,85,12.48,37.39
124.45,-0.027,0.166,11.859,21.622,85,12.48,37.13
124.52,-0.083,0.145,11.855,21.687,85,12.48,36.92
124.58,0.2,0.311,11.849,21.756,85,12.48,36.75
124.65,-0.075,0.186,11.844,21.828,85,12.48,36.6
124.71,0.034,0.104,11.839,21.901,85,12.48,36.43
124.77,0.194,0.124,11.834,21.968,85,12.48,36.29
124.84,0.221,0.166,11.832,22.033,85,12.48,36.17
124.9,-0.033,0.104,11.828,22.088,85,12.48,36.03
124.97,-0.05,0.104,11.826,22.136,80,12.48,35.88
125.03,-0.043,0.145,11.826,22.174,80,12.48,35.75
125.1,-0.058,0.124,11.827,22.203,80,12.48,35.58
125.16,-0.069,0.124,11.829,22.222,80,12.48,35.37
125.23,-0.078,0.124,11.836,22.235,80,12.48,35.28
125.29,0.119,0.311,11.845,22.237,80,12.48,35.21
125.35,0.008,0.228,11.858,22.231,80,12.48,35.18
125.42,0.03,0.145,11.873,22.219,80,12.48,35.11
125.48,0.181,0.124,11.907,22.175,80,12.48,35.31
125.55,0.249,0.145,11.91,22.171,80,12.48,35.32
125.61,-0.024,0.145,11.93,22.146,80,12.48,35.32
125.68,-0.052,0.124,11.953,22.113,83,12.48,35.28
125.74,-0.051,0.124,11.977,22.077,83,12.48,35.21
125.81,-0.059,0.124,12.002,22.04,83,12.48,35.12
125.87,-0.045,0.124,12.028,22.0,83,12.48,34.95
125.94,-0.049,0.145,12.053,21.959,83,12.48,34.88
126.0,-0.105,0.145,12.078,21.919,83,12.48,34.92
126.06,0.174,0.311,12.105,21.879,83,12.48,35.1
126.13,-0.011,0.166,12.127,21.839,83,12.48,35.27
126.19,0.083,0.124,12.151,21.801,83,12.48,35.49
126.26,0.253,0.145,12.171,21.764,83,12.48,35.78
126.32,0.012,0.166,12.191,21.728,83,12.48,36.1
126.39,-0.085,0.145,12.209,21.691,82,12.48,36.44
126.45,-0.086,0.166,12.227,21.659,82,12.48,36.76
126.52,-0.094,0.166,12.24,21.63,82,12.48,37.07
126.58,-0.073,0.186,12.253,21.599,82,12.48,37.25
126.65,-0.117,0.145,12.265,21.574,82,12.48,37.54
126.71,-0.065,0.228,12.275,21.549,82,12.48,37.93
126.77,0.017,0.269,12.282,21.524,82,12.48,38.33
126.84,-0.051,0.145,12.29,21.502,82,12.48,38.61
126.9,0.079,0.145,12.296,21.481,82,12.48,38.85
126.97,0.185,0.124,12.299,21.462,82,12.48,39.11
127.03,-0.083,0.186,12.3,21.445,82,12.48,39.43
127.1,-0.133,0.145,12.3,21.424,85,12.48,39.73
127.16,-0.121,0.145,12.3,21.407,85,12.48,40.01
127.23,-0.097,0.186,12.299,21.39,85,12.48,40.17
127.29,-0.117,0.166,12.295,21.375,85,12.48,40.29
127.35,-0.143,0.186,12.29,21.36,85,12.48,40.47
127.42,0.093,0.249,12.286,21.345,85,12.47,40.62
127.48,-0.052,0.186,12.28,21.328,85,12.47,40.7
127.55,0.068,0.145,12.272,21.31,85,12.47,40.56
127.61,0.22,0.145,12.263,21.295,85,12.47,40.32
127.68,-0.026,0.124,12.253,21.28,85,12.47,40.11
127.74,-0.092,0.145,12.244,21.266,91,12.47,39.9
127.81,-0.081,0.145,12.235,21.253,91,12.47,39.72
127.87,-0.079,0.166,12.225,21.239,91,12.47,39.5
127.94,-0.039,0.145,12.214,21.227,91,12.47,39.21
128.0,-0.103,0.166,12.203,21.221,91,12.47,38.99
128.06,0.21,0.311,12.19,21.216,91,12.47,38.79
128.13,-0.105,0.186,12.18,21.216,91,12.47,38.64
128.19,0.035,0.145,12.168,21.223,91,12.47,38.44
128.26,0.216,0.145,12.156,21.236,91,12.47,38.26
128.32,0.137,0.145,12.143,21.255,91,12.47,38.07
128.39,-0.065,0.124,12.132,21.279,88,12.47,37.85
128.45,-0.066,0.145,12.121,21.31,88,12.47,37.62
128.52,-0.062,0.166,12.108,21.343,88,12.47,37.41
128.58,-0.076,0.124,12.097,21.376,88,12.47,37.08
128.65,-0.03,0.166,12.086,21.408,88,12.45,36.78
128.71,-0.094,0.145,12.074,21.441,88,12.45,36.58
128.77,0.223,0.311,12.064,21.47,88,12.47,36.43
128.84,-0.107,0.207,12.054,21.497,88,12.47,36.3
128.9,0.03,0.104,12.044,21.521,88,12.45,36.15
128.97,0.2,0.124,12.034,21.54,88,12.45,36.02
129.03,0.187,0.124,12.028,21.56,88,12.45,35.91
129.1,-0.052,0.124,12.02,21.58,84,12.45,35.8
129.16,-0.056,0.104,12.015,21.6,84,12.45,35.68
129.23,-0.054,0.124,12.01,21.62,84,12.45,35.56
129.29,-0.066,0.124,12.006,21.641,84,12.45,35.38
129.35,-0.079,0.145,12.003,21.668,84,12.45,35.14
129.42,-0.08,0.145,12.002,21.699,84,12.45,35.01
129.48,-0.039,0.145,12.001,21.73,84,12.45,34.97
129.55,-0.068,0.145,12.001,21.768,84,12.45,35.0
129.61,0.012,0.269,12.003,21.799,84,12.45,34.97
129.68,0.111,0.228,12.005,21.828,84,12.45,34.94
129.74,0.02,0.145,12.008,21.852,84,12.45,34.92
129.81,0.145,0.124,12.013,21.868,84,12.45,34.91
129.87,0.277,0.186,12.019,21.88,84,12.45,34.9
129.94,0.006,0.166,12.026,21.884,84,12.45,34.87
130.0,-0.044,0.145,12.038,21.884,69,12.45,34.83
130.06,-0.035,0.104,12.049,21.878,69,12.45,34.81
130.13,-0.049,0.104,12.063,21.867,69,12.45,34.76
130.19,-0.063,0.166,12.079,21.852,69,12.45,34.61
130.26,-0.07,0.166,12.096,21.834,69,12.45,34.54
130.32,-0.072,0.145,12.116,21.81,69,12.45,34.55
130.39,-0.028,0.145,12.137,21.784,69,12.45,34.63
130.45,-0.06,0.124,12.159,21.753,69,12.45,34.71
130.52,0.033,0.311,12.182,21.72,69,12.45,34.82
130.58,0.099,0.29,12.206,21.687,69,12.45,35.03
130.65,0.014,0.124,12.229,21.651,69,12.45,35.29
130.71,0.139,0.145,12.252,21.616,69,12.45,35.59
130.77,0.25,0.124,12.274,21.578,69,12.45,35.91
130.84,-0.013,0.124,12.295,21.54,69,12.45,36.26
130.9,-0.072,0.145,12.315,21.502,67,12.45,36.57
130.97,-0.066,0.145,12.334,21.467,67,12.45,36.89
131.03,-0.079,0.166,12.351,21.432,67,12.45,37.11
131.1,-0.095,0.124,12.366,21.397,67,12.45,37.27
131.16,-0.09,0.166,12.379,21.365,67,12.45,37.56
131.23,-0.064,0.166,12.389,21.333,67,12.45,37.87
131.29,-0.132,0.186,12.398,21.301,67,12.45,38.2
131.35,0.138,0.269,12.406,21.272,67,12.45,38.47
131.42,-0.071,0.166,12.411,21.244,67,12.45,38.7
131.48,0.04,0.166,12.413,21.218,67,12.45,38.91
131.55,0.225,0.186,12.417,21.193,67,12.45,39.16
131.61,0.044,0.145,12.417,21.17,67,12.45,39.44
131.68,-0.1,0.145,12.417,21.146,74,12.45,39.73
131.74,-0.094,0.166,12.413,21.124,74,12.45,39.93
131.81,-0.087,0.124,12.411,21.103,74,12.45,40.05
131.87,-0.088,0.124,12.406,21.083,74,12.45,40.04
131.94,-0.058,0.145,12.398,21.066,74,12.45,39.98
132.0,-0.117,0.145,12.392,21.046,74,12.45,39.86
132.06,0.172,0.29,12.384,21.028,74,12.45,39.76
132.13,-0.066,0.124,12.377,21.011,74,12.45,39.57
132.19,0.056,0.145,12.368,20.995,74,12.45,39.34
132.26,0.251,0.145,12.36,20.977,74,12.45,39.09
132.32,0.103,0.145,12.347,20.962,74,12.45,38.9
132.39,-0.059,0.186,12.337,20.947,84,12.45,38.7
132.45,-0.058,0.124,12.326,20.932,84,12.45,38.48
132.52,-0.053,0.166,12.315,20.917,84,12.45,38.25
132.58,-0.066,0.166,12.302,20.903,84,12.45,37.9
132.65,-0.071,0.124,12.29,20.89,84,12.45,37.6
132.71,-0.021,0.166,12.277,20.876,84,12.45,37.4
132.77,-0.065,0.104,12.264,20.866,84,12.45,37.22
132.84,0.22,0.29,12.252,20.856,84,12.45,37.06
132.9,-0.061,0.166,12.238,20.849,84,12.45,36.89
132.97,0.039,0.124,12.224,20.839,84,12.45,36.75
133.03,0.196,0.145,12.21,20.828,84,12.45,36.62
133.1,0.24,0.124,12.197,20.817,84,12.45,36.51
133.16,-0.022,0.104,12.184,20.808,84,12.45,36.4
133.23,-0.04,0.207,12.172,20.799,75,12.45,36.29
133.29,-0.033,0.166,12.16,20.789,75,12.45,36.19
133.35,-0.046,0.166,12.147,20.777,75,12.45,36.01
133.42,-0.055,0.124,12.133,20.766,75,12.45,35.76
133.48,-0.034,0.124,12.121,20.754,75,12.45,35.63
133.55,-0.017,0.166,12.108,20.745,75,12.45,35.55
133.61,-0.076,0.166,12.096,20.735,75,12.45,35.53
133.68,0.21,0.269,12.085,20.722,75,12.45,35.47
133.74,0.013,0.124,12.071,20.71,75,12.45,35.42
133.81,0.109,0.124,12.06,20.701,75,12.45,35.38
133.87,0.294,0.145,12.048,20.69,75,12.45,35.33
133.94,0.083,0.083,12.035,20.68,75,12.45,35.28
134.0,-0.042,0.124,12.024,20.67,74,12.44,35.24
134.06,-0.034,0.104,12.011,20.658,74,12.44,35.21
134.13,-0.042,0.145,12.002,20.645,74,12.44,35.2
134.19,-0.059,0.145,11.989,20.635,74,12.44,35.06
134.26,-0.065,0.166,11.979,20.628,74,12.44,34.94
134.32,-0.051,0.124,11.969,20.62,74,12.44,34.92
134.39,-0.022,0.145,11.959,20.61,74,12.44,34.97
134.45,-0.087,0.124,11.948,20.6,74,12.44,35.01
134.52,0.198,0.352,11.937,20.59,74,12.44,34.99
134.58,-0.004,0.166,11.927,20.583,74,12.44,34.99
134.65,0.087,0.145,11.917,20.573,74,12.44,35.0
134.71,0.275,0.145,11.907,20.566,74,12.44,35.03
134.77,0.095,0.124,11.897,20.557,74,12.44,35.03
134.84,-0.045,0.124,11.887,20.55,71,12.44,35.04
134.9,-0.042,0.145,11.877,20.543,71,12.44,35.04
134.97,-0.052,0.124,11.87,20.536,71,12.44,35.05
135.03,-0.068,0.145,11.86,20.528,71,12.44,34.95
135.1,-0.076,0.166,11.85,20.52,71,12.44,34.86
135.16,-0.033,0.145,11.842,20.511,71,12.44,34.87
135.23,-0.073,0.104,11.833,20.503,71,12.44,34.99
135.29,-0.115,0.331,11.824,20.495,71,12.44,35.17
135.35,-0.096,0.373,11.815,20.487,71,12.44,35.31
135.42,0.013,0.145,11.805,20.48,71,12.44,35.53
135.48,0.144,0.166,11.798,20.471,71,12.44,35.78
135.55,0.233,0.145,11.789,20.464,71,12.44,36.05
135.61,-0.026,0.145,11.773,20.45,71,12.44,36.57
135.68,-0.066,0.124,11.772,20.45,71,12.44,36.61
135.74,-0.066,0.145,11.763,20.443,71,12.44,36.85
135.81,-0.083,0.166,11.755,20.436,71,12.44,37.06
135.87,-0.093,0.145,11.748,20.43,71,12.44,37.19
135.94,-0.055,0.145,11.74,20.425,71,12.44,37.47
136.0,-0.117,0.166,11.732,20.42,71,12.44,37.77
136.06,0.16,0.269,11.723,20.413,71,12.44,38.08
136.13,-0.126,0.124,11.716,20.408,71,12.44,38.32
136.19,0.014,0.145,11.707,20.403,71,12.43,38.59
136.26,0.187,0.166,11.701,20.398,71,12.43,38.83
136.32,-0.01,0.186,11.692,20.393,71,12.43,39.1
136.39,-0.093,0.249,11.685,20.391,71,12.43,39.35
136.45,-0.09,0.145,11.677,20.383,71,12.43,39.59
136.52,-0.081,0.166,11.671,20.381,71,12.43,39.78
136.58,-0.06,0.145,11.662,20.373,71,12.43,39.87
136.65,-0.084,0.166,11.649,20.364,71,12.44,40.02
136.71,-0.077,0.186,11.648,20.365,71,12.43,40.02
136.77,0.089,0.269,11.641,20.358,71,12.43,40.03
136.84,-0.016,0.104,11.634,20.353,71,12.43,39.94
136.9,0.108,0.124,11.628,20.346,71,12.43,39.74
136.97,0.244,0.145,11.62,20.341,71,12.43,39.48
137.03,-0.006,0.124,11.613,20.333,71,12.43,39.26
137.1,-0.067,0.166,11.606,20.328,88,12.43,39.08
137.16,-0.06,0.145,11.599,20.321,88,12.43,38.93
137.23,-0.067,0.145,11.593,20.313,88,12.43,38.72
137.29,-0.028,0.124,11.585,20.307,88,12.43,38.42
137.35,0.129,0.331,11.58,20.301,88,12.43,38.18
137.42,0.224,0.539,11.575,20.294,88,12.43,37.97
137.48,-0.012,0.207,11.569,20.287,88,12.43,37.79
137.55,0.017,0.124,11.563,20.281,94,12.43,37.61
137.61,0.16,0.124,11.557,20.275,94,12.43,37.42
137.68,0.234,0.145,11.544,20.266,94,12.43,37.01
137.74,-0.027,0.145,11.543,20.268,94,12.43,36.98
137.81,-0.048,0.124,11.538,20.266,94,12.43,36.75
137.87,-0.047,0.145,11.531,20.266,94,12.43,36.56
137.94,-0.062,0.104,11.523,20.269,94,12.43,36.33
138.0,-0.016,0.166,11.518,20.275,94,12.43,36.01
138.06,-0.078,0.145,11.511,20.286,94,12.43,35.84
138.13,0.213,0.29,11.507,20.297,94,12.43,35.73
138.19,-0.081,0.207,11.502,20.312,94,12.43,35.7
138.26,0.03,0.186,11.496,20.328,94,12.43,35.62
138.32,0.186,0.145,11.491,20.342,94,12.43,35.54
138.39,0.203,0.145,11.483,20.356,94,12.43,35.49
138.45,-0.044,0.104,11.479,20.367,94,12.43,35.46
138.52,-0.057,0.145,11.474,20.379,78,12.43,35.41
138.58,-0.059,0.166,11.47,20.392,78,12.43,35.35
138.65,-0.074,0.124,11.468,20.401,78,12.43,35.25
138.71,-0.085,0.145,11.465,20.41,78,12.43,35.08
138.77,-0.07,0.124,11.463,20.418,78,12.43,35.03
138.84,-0.043,0.166,11.463,20.423,78,12.43,34.99
138.9,-0.107,0.166,11.463,20.427,78,12.43,34.99
138.97,0.172,0.29,11.463,20.433,78,12.43,34.98
139.03,-0.031,0.145,11.464,20.446,78,12.43,35.0
139.1,0.058,0.124,11.466,20.453,78,12.43,34.99
139.16,0.242,0.145,11.469,20.454,78,12.43,34.96
139.23,0.09,0.104,11.473,20.45,78,12.43,34.95
139.29,-0.063,0.104,11.476,20.445,73,12.43,34.96
139.35,-0.056,0.124,11.48,20.443,73,12.43,34.94
139.42,-0.068,0.145,11.483,20.438,73,12.43,34.92
139.48,-0.085,0.186,11.488,20.429,73,12.43,34.76
139.55,-0.086,0.186,11.491,20.419,73,12.43,34.65
139.61,-0.046,0.166,11.496,20.408,73,12.43,34.76
139.68,-0.111,0.145,11.498,20.393,73,12.43,34.99
139.74,0.173,0.352,11.502,20.376,73,12.43,35.23
139.81,-0.099,0.145,11.505,20.361,73,12.43,35.44
139.87,0.017,0.145,11.507,20.343,73,12.43,35.73
139.94,0.185,0.145,11.51,20.326,73,12.43,36.03
140.0,0.118,0.145,11.51,20.31,73,12.43,36.33
140.06,-0.086,0.124,11.512,20.294,76,12.43,36.66
140.13,-0.095,0.166,11.512,20.276,76,12.43,36.96
140.19,-0.096,0.145,11.51,20.261,76,12.43,37.22
140.26,-0.115,0.145,11.51,20.25,76,12.43,37.35
140.32,-0.122,0.145,11.51,20.236,76,12.43,37.53
140.39,-0.078,0.166,11.507,20.224,76,12.43,37.84
140.45,-0.142,0.166,11.506,20.209,76,12.43,38.16
140.52,0.145,0.249,11.503,20.195,76,12.43,38.45
140.58,-0.161,0.207,11.501,20.185,76,12.43,38.67
140.65,-0.013,0.166,11.496,20.175,76,12.43,38.88
140.71,0.156,0.124,11.493,20.165,76,12.43,39.08
140.77,0.104,0.124,11.49,20.155,76,12.43,39.29
140.84,-0.103,0.145,11.487,20.149,76,12.43,39.51
140.9,-0.105,0.186,11.482,20.145,76,12.43,39.71
140.97,-0.095,0.104,11.479,20.139,76,12.43,39.82
141.03,-0.105,0.124,11.474,20.137,76,12.43,39.77
141.1,-0.063,0.207,11.469,20.133,76,12.43,39.64
141.16,-0.121,0.124,11.464,20.128,76,12.43,39.47
141.23,0.192,0.269,11.457,20.122,76,12.43,39.33
141.29,-0.134,0.186,11.45,20.113,76,12.43,39.16
141.35,0.012,0.104,11.444,20.106,76,12.43,38.99
141.42,0.185,0.145,11.439,20.099,76,12.43,38.81
141.48,0.146,0.124,11.431,20.097,76,12.43,38.62
141.55,-0.073,0.166,11.426,20.091,84,12.43,38.45
141.61,-0.077,0.124,11.419,20.085,84,12.43,38.29
141.68,-0.073,0.124,11.414,20.078,84,12.43,38.1
141.74,-0.085,0.124,11.406,20.072,84,12.43,37.78
141.81,-0.085,0.124,11.4,20.067,84,12.43,37.5
141.87,-0.046,0.124,11.394,20.061,84,12.43,37.31
141.94,-0.107,0.104,11.387,20.055,84,12.43,37.16
142.0,0.193,0.29,11.38,20.051,84,12.43,37.02
142.06,-0.069,0.145,11.374,20.045,84,12.43,36.81
142.13,0.041,0.124,11.367,20.042,84,12.43,36.65
142.19,0.225,0.166,11.362,20.035,84,12.43,36.5
142.26,0.128,0.124,11.354,20.028,84,12.43,36.36
142.32,-0.061,0.104,11.348,20.023,78,12.43,36.26
142.39,-0.06,0.145,11.342,20.016,78,12.43,36.16
142.45,-0.062,0.124,11.337,20.01,78,12.43,36.06
142.52,-0.075,0.104,11.329,20.005,78,12.43,35.84
142.58,-0.083,0.124,11.324,19.998,78,12.43,35.63
142.65,-0.058,0.186,11.319,19.993,78,12.43,35.53
142.71,-0.049,0.124,11.313,19.988,78,12.43,35.48
142.77,-0.099,0.166,11.307,19.983,78,12.43,35.45
142.84,0.187,0.331,11.302,19.978,78,12.43,35.37
142.9,-0.004,0.124,11.296,19.973,78,12.43,35.31
142.97,0.09,0.104,11.29,19.97,78,12.43,35.26
143.03,0.264,0.228,11.285,19.965,78,12.43,35.21
143.1,0.047,0.145,11.28,19.963,78,12.43,35.18
143.16,-0.061,0.166,11.275,19.959,73,12.43,35.16
143.23,-0.06,0.104,11.27,19.957,73,12.43,35.14
143.29,-0.071,0.124,11.262,19.953,73,12.42,35.13
143.35,-0.09,0.124,11.257,19.951,73,12.42,34.95
143.42,-0.097,0.145,11.252,19.948,73,12.42,34.86
143.48,-0.1,0.186,11.247,19.946,73,12.42,34.86
143.55,-0.057,0.124,11.242,19.945,73,12.42,34.89
143.61,-0.076,0.166,11.237,19.942,73,12.42,34.93
143.68,-0.038,0.269,11.232,19.938,73,12.42,34.93
143.74,0.106,0.249,11.227,19.937,73,12.42,34.92
143.81,0.086,0.166,11.222,19.933,73,12.42,34.92
143.87,0.147,0.145,11.217,19.931,73,12.42,34.93
143.94,0.237,0.166,11.213,19.926,73,12.42,34.93
144.0,-0.013,0.124,11.208,19.923,73,12.42,35.0
144.06,-0.083,0.124,11.203,19.918,67,12.42,35.14
144.13,-0.081,0.145,11.193,19.907,67,12.42,35.44
144.19,-0.098,0.104,11.192,19.906,67,12.42,35.45
144.26,-0.116,0.145,11.188,19.901,67,12.42,35.51
144.32,-0.125,0.145,11.184,19.896,67,12.42,35.77
144.39,-0.085,0.145,11.18,19.889,67,12.42,36.12
144.45,-0.124,0.166,11.175,19.883,67,12.42,36.5
144.52,0.042,0.29,11.17,19.878,67,12.42,36.8
144.58,-0.08,0.269,11.165,19.871,67,12.4,37.09
144.65,-0.041,0.124,11.16,19.866,67,12.42,37.41
144.71,0.093,0.145,11.155,19.861,67,12.42,37.73
144.77,0.179,0.145,11.153,19.856,67,12.42,38.06
144.84,-0.079,0.145,11.148,19.851,67,12.42,38.38
144.9,-0.122,0.166,11.143,19.844,72,12.42,38.64
144.97,-0.113,0.186,11.138,19.839,72,12.4,38.88
145.03,-0.126,0.124,11.135,19.832,72,12.4,39.03
145.1,-0.094,0.145,11.13,19.826,72,12.42,39.15
145.16,-0.138,0.145,11.126,19.819,72,12.4,39.35
145.23,0.023,0.249,11.121,19.811,72,12.4,39.59
145.29,-0.077,0.186,11.116,19.806,72,12.4,39.82
145.35,-0.039,0.104,11.112,19.801,72,12.4,39.96
145.42,0.104,0.145,11.108,19.796,72,12.4,40.11
145.48,0.187,0.145,11.103,19.791,72,12.4,40.2
145.55,-0.071,0.124,11.098,19.786,72,12.42,40.21
145.61,-0.108,0.104,11.096,19.784,84,12.42,40.15
145.68,-0.095,0.166,11.091,19.779,84,12.4,40.02
145.74,-0.104,0.166,11.087,19.775,84,12.4,39.78
145.81,-0.066,0.186,11.083,19.772,84,12.4,39.52
145.87,-0.106,0.166,11.078,19.768,84,12.4,39.35
145.94,0.046,0.228,11.076,19.764,84,12.4,39.21
146.0,-0.001,0.207,11.071,19.763,84,12.42,39.08
146.06,-0.009,0.166,11.066,19.762,84,12.4,38.93
146.13,0.127,0.124,11.063,19.759,84,12.4,38.78
146.19,0.22,0.186,11.058,19.757,84,12.4,38.6
146.26,-0.035,0.186,11.053,19.754,84,12.4,38.42
146.32,-0.073,0.104,11.051,19.753,84,12.4,38.28
146.39,-0.066,0.145,11.046,19.749,84,12.4,38.09
146.45,-0.074,0.166,11.042,19.747,84,12.4,37.81
146.52,-0.077,0.166,11.039,19.743,84,12.4,37.47
146.58,-0.035,0.124,11.035,19.739,84,12.4,37.26
146.65,-0.094,0.145,11.031,19.737,84,12.4,37.0
146.71,0.219,0.394,11.026,19.732,84,12.4,36.82
146.77,-0.08,0.166,11.024,19.729,84,12.4,36.68
146.84,0.043,0.145,11.019,19.724,84,12.4,36.59
146.9,0.221,0.124,11.014,19.721,84,12.4,36.5
146.97,0.17,0.145,11.011,19.717,84,12.4,36.37
147.03,-0.04,0.166,11.006,19.714,84,12.4,36.27
147.1,-0.041,0.145,11.003,19.709,80,12.4,36.12
147.16,-0.039,0.145,10.999,19.704,80,12.4,36.02
147.23,-0.053,0.145,10.995,19.701,80,12.4,35.8
147.29,-0.061,0.104,10.991,19.697,80,12.4,35.59
147.35,-0.01,0.145,10.988,19.692,80,12.4,35.51
147.42,-0.068,0.145,10.984,19.689,80,12.4,35.44
147.48,0.235,0.29,10.98,19.687,80,12.4,35.41
147.55,-0.078,0.207,10.976,19.684,80,12.4,35.33
147.61,0.044,0.124,10.973,19.681,80,12.4,35.27
147.68,0.175,0.145,10.969,19.679,80,12.4,35.23
147.74,0.152,0.124,10.966,19.675,80,12.4,35.2
147.81,-0.023,0.124,10.961,19.67,80,12.4,35.19
147.87,-0.033,0.145,10.959,19.665,76,12.4,35.15
147.94,-0.032,0.145,10.954,19.661,76,12.4,35.14
148.0,-0.049,0.145,10.948,19.657,76,12.4,34.96
148.06,-0.062,0.145,10.948,19.656,76,12.4,34.95
148.13,-0.064,0.124,10.944,19.655,76,12.4,34.89
148.19,-0.029,0.166,10.939,19.651,76,12.4,34.91
148.26,-0.05,0.145,10.937,19.645,76,12.4,34.97
148.32,-0.012,0.228,10.933,19.64,76,12.4,34.96
148.39,0.133,0.29,10.929,19.635,76,12.4,34.94
148.45,0.012,0.124,10.927,19.63,76,12.4,34.95
148.52,0.123,0.124,10.922,19.625,76,12.4,34.97
148.58,0.261,0.145,10.919,19.62,76,12.4,35.03
148.65,0.009,0.124,10.916,19.615,76,12.4,35.15
148.71,-0.058,0.186,10.912,19.61,69,12.4,35.32
148.77,-0.054,0.145,10.908,19.603,69,12.4,35.51
148.84,-0.07,0.145,10.904,19.599,69,12.4,35.71
148.9,-0.09,0.124,10.901,19.595,69,12.4,35.81
148.97,-0.101,0.145,10.898,19.59,69,12.4,36.07
149.03,-0.072,0.145,10.894,19.585,69,12.4,36.42
149.1,-0.08,0.145,10.892,19.58,69,12.4,36.78
149.16,-0.088,0.207,10.887,19.575,69,12.4,37.08
149.23,0.091,0.228,10.884,19.573,69,12.4,37.37
149.29,-0.031,0.124,10.879,19.568,69,12.4,37.66
149.35,0.075,0.145,10.877,19.563,69,12.42,37.93
149.42,0.224,0.124,10.873,19.558,69,12.4,38.2
149.48,-0.006,0.166,10.869,19.555,69,12.4,38.49
149.55,-0.096,0.145,10.867,19.55,71,12.4,38.75
149.61,-0.091,0.124,10.863,19.548,71,12.4,38.98
149.68,-0.101,0.145,10.861,19.543,71,12.4,39.13
149.74,-0.109,0.166,10.857,19.538,71,12.4,39.18
149.81,-0.071,0.145,10.855,19.533,71,12.4,39.3
149.87,-0.13,0.166,10.85,19.529,71,12.4,39.43
149.94,0.153,0.269,10.847,19.525,71,12.4,39.58
150.0,-0.117,0.186,10.844,19.522,71,12.4,39.6
150.06,0.022,0.124,10.84,19.518,71,12.4,39.46
150.13,0.196,0.186,10.837,19.515,71,12.4,39.22
150.19,0.123,0.145,10.832,19.51,71,12.4,39.01
150.26,-0.071,0.186,10.83,19.506,80,12.4,38.85
150.32,-0.069,0.104,10.826,19.501,80,12.4,38.7
150.39,-0.066,0.124,10.824,19.496,80,12.4,38.52
150.45,-0.079,0.186,10.82,19.492,80,12.4,38.23
150.52,-0.086,0.104,10.817,19.488,80,12.4,37.96
150.58,-0.03,0.145,10.814,19.483,80,12.4,37.75
150.65,-0.084,0.124,10.811,19.48,80,12.4,37.57
150.71,0.231,0.373,10.807,19.476,80,12.4,37.38
150.77,-0.097,0.186,10.804,19.471,80,12.4,37.16
