Time,ECG,EMG,foot GSR,hand GSR,HR,marker,RESP
0.0,0.14,0.249,1.937,4.003,78,11.38,35.5
0.06,-0.037,0.228,1.937,4.002,78,11.38,35.51
0.13,-0.043,0.228,1.934,4.001,78,11.38,35.49
0.19,-0.035,0.249,1.934,4.0,78,11.38,35.46
0.26,-0.046,0.249,1.934,3.997,78,11.38,35.35
0.32,-0.063,0.228,1.934,3.997,78,11.38,35.34
0.39,-0.076,0.228,1.934,3.995,78,11.38,35.38
0.45,-0.066,0.352,1.932,3.995,78,11.38,35.4
0.52,0.224,0.767,1.932,3.992,78,11.38,35.44
0.58,-0.042,0.249,1.933,3.991,78,11.38,35.45
0.65,-0.009,0.228,1.932,3.99,78,11.38,35.54
0.71,0.119,0.249,1.93,3.99,76,11.38,35.54
0.77,0.117,0.249,1.929,3.988,76,11.38,35.62
0.84,-0.032,0.269,1.929,3.987,76,11.38,35.72
0.9,-0.053,0.228,1.929,3.987,76,11.38,35.82
0.97,-0.044,0.269,1.928,3.985,76,11.38,35.87
1.03,-0.028,0.228,1.925,3.982,76,11.38,35.96
1.1,-0.044,0.29,1.925,3.982,76,11.38,35.96
1.16,-0.084,0.269,1.927,3.98,76,11.38,36.07
1.23,0.209,0.829,1.925,3.98,76,11.38,36.19
1.29,-0.058,0.331,1.924,3.978,76,11.38,36.3
1.35,-0.021,0.269,1.924,3.978,76,11.38,36.4
1.42,0.04,0.269,1.924,3.975,81,11.38,36.47
1.48,0.15,0.269,1.924,3.975,81,11.38,36.56
1.55,0.024,0.249,1.922,3.974,81,11.38,36.66
1.61,-0.053,0.249,1.922,3.973,81,11.38,36.77
1.68,-0.037,0.269,1.922,3.971,81,11.38,36.84
1.74,-0.009,0.249,1.922,3.97,81,11.37,36.89
1.81,-0.051,0.29,1.922,3.97,81,11.38,36.94
1.87,-0.084,0.331,1.919,3.968,81,11.38,36.98
1.94,0.225,0.767,1.919,3.966,81,11.38,36.98
2.0,-0.044,0.331,1.919,3.964,81,11.38,36.94
2.06,-0.016,0.249,1.919,3.963,81,11.38,36.88
2.13,0.055,0.228,1.918,3.96,85,11.38,36.8
2.19,0.149,0.311,1.917,3.96,85,11.38,36.73
2.26,-0.012,0.29,1.917,3.958,85,11.38,36.66
2.32,-0.052,0.249,1.917,3.958,85,11.38,36.61
2.39,-0.037,0.228,1.917,3.955,85,11.38,36.52
2.45,-0.023,0.29,1.917,3.954,85,11.37,36.4
2.52,-0.038,0.29,1.914,3.953,85,11.37,36.29
2.58,-0.081,0.311,1.914,3.953,85,11.37,36.2
2.65,0.228,0.787,1.914,3.95,85,11.38,36.13
2.71,-0.047,0.249,1.914,3.949,85,11.37,36.05
2.77,-0.022,0.249,1.914,3.948,85,11.37,35.99
2.84,0.04,0.207,1.912,3.945,83,11.37,35.94
2.9,0.159,0.249,1.912,3.943,83,11.38,35.92
2.97,0.035,0.228,1.912,3.943,83,11.37,35.92
3.03,-0.043,0.228,1.91,3.94,83,11.37,35.92
3.1,-0.031,0.249,1.909,3.94,83,11.37,35.9
3.16,-0.033,0.269,1.909,3.939,83,11.37,35.82
3.23,-0.005,0.228,1.909,3.936,83,11.37,35.73
3.29,-0.044,0.249,1.909,3.935,83,11.37,35.7
3.35,-0.073,0.311,1.909,3.933,83,11.37,35.66
3.42,0.246,0.746,1.907,3.933,83,11.37,35.65
3.48,-0.028,0.29,1.907,3.93,83,11.37,35.62
3.55,-0.003,0.249,1.907,3.929,83,11.37,35.59
3.61,0.066,0.249,1.907,3.928,78,11.37,35.58
3.68,0.175,0.249,1.904,3.926,78,11.37,35.57
3.74,0.016,0.29,1.904,3.926,78,11.37,35.55
3.81,-0.035,0.207,1.904,3.925,78,11.37,35.53
3.87,-0.025,0.249,1.904,3.923,78,11.37,35.52
3.94,-0.033,0.269,1.904,3.921,78,11.37,35.46
4.0,-0.042,0.269,1.902,3.92,78,11.37,35.42
4.06,-0.004,0.269,1.902,3.92,78,11.37,35.38
4.13,-0.053,0.269,1.902,3.919,78,11.37,35.37
4.19,-0.052,0.352,1.902,3.916,78,11.37,35.36
4.26,0.239,0.684,1.9,3.915,78,11.37,35.36
4.32,-0.028,0.249,1.899,3.915,78,11.37,35.37
4.39,0.004,0.186,1.899,3.915,78,11.37,35.37
4.45,0.09,0.228,1.899,3.915,72,11.37,35.38
4.52,0.17,0.269,1.899,3.913,72,11.37,35.38
4.58,-0.01,0.249,1.898,3.913,72,11.37,35.39
4.65,-0.036,0.249,1.897,3.913,72,11.37,35.4
4.71,-0.032,0.249,1.897,3.91,72,11.37,35.45
4.77,-0.044,0.269,1.897,3.91,72,11.37,35.46
4.84,-0.025,0.249,1.897,3.908,72,11.37,35.51
4.9,-0.056,0.228,1.897,3.908,72,11.37,35.58
4.97,-0.086,0.269,1.894,3.908,72,11.37,35.67
5.03,0.228,0.849,1.894,3.906,72,11.37,35.75
5.1,-0.044,0.29,1.894,3.906,72,11.37,35.86
5.16,-0.017,0.29,1.894,3.905,72,11.37,35.97
5.23,0.055,0.249,1.893,3.905,76,11.37,36.07
5.29,0.155,0.269,1.892,3.905,76,11.37,36.15
5.35,-0.009,0.249,1.892,3.905,76,11.37,36.24
5.42,-0.057,0.29,1.892,3.903,76,11.37,36.34
5.48,-0.042,0.269,1.892,3.903,76,11.37,36.4
5.55,-0.049,0.249,1.892,3.903,76,11.37,36.46
5.61,-0.025,0.269,1.89,3.903,76,11.37,36.54
5.68,-0.086,0.228,1.889,3.903,76,11.37,36.63
5.74,0.127,0.725,1.889,3.903,76,11.37,36.71
5.81,0.02,0.539,1.889,3.9,76,11.37,36.79
5.87,-0.038,0.311,1.889,3.9,76,11.37,36.84
5.94,0.089,0.269,1.887,3.9,80,11.37,36.9
6.0,0.131,0.269,1.887,3.9,80,11.37,36.94
6.06,0.081,0.207,1.887,3.898,80,11.37,36.92
6.13,-0.062,0.207,1.887,3.898,80,11.37,36.87
6.19,-0.053,0.249,1.887,3.895,80,11.37,36.77
6.26,-0.056,0.228,1.884,3.894,80,11.37,36.53
6.32,-0.045,0.228,1.884,3.893,80,11.37,36.52
6.39,-0.059,0.249,1.884,3.892,80,11.37,36.45
6.45,-0.1,0.29,1.884,3.891,80,11.37,36.36
6.52,0.212,0.704,1.883,3.889,80,11.37,36.28
6.58,-0.071,0.373,1.882,3.888,80,11.37,36.22
6.65,-0.048,0.228,1.882,3.886,80,11.37,36.16
6.71,0.01,0.228,1.882,3.886,80,11.37,36.11
6.77,0.125,0.29,1.882,3.883,80,11.37,36.03
6.84,0.007,0.207,1.882,3.883,80,11.37,35.96
6.9,-0.081,0.29,1.879,3.881,80,11.37,35.9
6.97,-0.068,0.269,1.879,3.881,80,11.37,35.85
7.03,-0.073,0.29,1.879,3.879,80,11.37,35.75
7.1,-0.083,0.228,1.879,3.877,80,11.37,35.69
7.16,-0.048,0.249,1.879,3.876,80,11.37,35.65
7.23,-0.11,0.228,1.879,3.874,80,11.37,35.64
7.29,0.011,0.642,1.878,3.873,80,11.37,35.63
7.35,0.084,0.58,1.877,3.872,80,11.37,35.61
7.42,-0.074,0.249,1.877,3.871,80,11.37,35.61
7.48,-0.035,0.249,1.877,3.869,75,11.37,35.61
7.55,0.068,0.249,1.877,3.868,75,11.37,35.6
7.61,0.086,0.249,1.875,3.868,75,11.37,35.59
7.68,-0.084,0.228,1.874,3.866,75,11.35,35.57
7.74,-0.085,0.269,1.874,3.866,75,11.37,35.55
7.81,-0.081,0.249,1.874,3.864,75,11.37,35.53
7.87,-0.093,0.249,1.874,3.863,75,11.37,35.48
7.94,-0.101,0.29,1.873,3.861,75,11.37,35.47
8.0,-0.065,0.269,1.872,3.859,75,11.35,35.45
8.06,-0.123,0.29,1.872,3.858,75,11.37,35.45
8.13,0.072,0.58,1.872,3.857,75,11.35,35.44
8.19,0.004,0.518,1.872,3.856,75,11.37,35.44
8.26,-0.079,0.249,1.869,3.853,75,11.37,35.45
8.32,-0.035,0.269,1.869,3.853,71,11.35,35.45
8.39,0.071,0.269,1.869,3.853,71,11.37,35.45
8.45,0.073,0.228,1.869,3.851,71,11.37,35.47
8.52,-0.088,0.228,1.869,3.849,71,11.37,35.46
8.58,-0.086,0.249,1.868,3.848,71,11.37,35.47
8.65,-0.085,0.228,1.867,3.847,71,11.37,35.46
8.71,-0.099,0.269,1.867,3.846,71,11.37,35.44
8.77,-0.084,0.269,1.867,3.843,71,11.35,35.49
8.84,-0.097,0.29,1.867,3.843,71,11.37,35.54
8.9,-0.134,0.331,1.865,3.841,71,11.37,35.62
8.97,0.176,0.704,1.864,3.841,71,11.37,35.67
9.03,-0.093,0.269,1.864,3.838,71,11.35,35.73
9.1,-0.068,0.207,1.864,3.838,71,11.37,35.83
9.16,-0.001,0.269,1.864,3.837,74,11.37,35.93
9.23,0.106,0.269,1.864,3.836,74,11.37,36.02
9.29,-0.045,0.311,1.863,3.834,74,11.37,36.1
9.35,-0.104,0.249,1.862,3.833,74,11.37,36.18
9.42,-0.088,0.269,1.862,3.832,74,11.37,36.25
9.48,-0.095,0.249,1.862,3.831,74,11.35,36.27
9.55,-0.059,0.29,1.862,3.831,74,11.35,36.34
9.61,-0.119,0.249,1.86,3.828,74,11.35,36.44
9.68,-0.081,0.435,1.86,3.828,74,11.37,36.53
9.74,0.147,0.684,1.86,3.826,74,11.35,36.62
9.81,-0.074,0.29,1.86,3.824,74,11.35,36.69
9.87,-0.034,0.228,1.858,3.823,74,11.35,36.77
9.94,0.056,0.228,1.857,3.822,80,11.35,36.85
10.0,0.095,0.249,1.857,3.821,80,11.35,36.92
10.06,-0.073,0.269,1.857,3.819,80,11.35,36.92
10.13,-0.074,0.228,1.857,3.818,80,11.35,36.87
10.19,-0.066,0.269,1.857,3.818,80,11.35,36.78
10.26,-0.035,0.269,1.857,3.816,80,11.35,36.67
10.32,-0.101,0.228,1.855,3.814,80,11.35,36.61
10.39,-0.058,0.435,1.855,3.813,80,11.35,36.53
10.45,0.164,0.663,1.855,3.812,80,11.35,36.49
10.52,-0.063,0.249,1.855,3.809,80,11.35,36.44
10.58,-0.022,0.228,1.855,3.808,80,11.35,36.36
10.65,0.074,0.228,1.853,3.808,84,11.35,36.28
10.71,0.111,0.249,1.852,3.808,84,11.35,36.22
10.77,-0.056,0.228,1.852,3.807,84,11.35,36.17
10.84,-0.058,0.269,1.852,3.806,84,11.35,36.12
10.9,-0.048,0.228,1.852,3.806,84,11.35,36.03
10.97,-0.024,0.228,1.85,3.804,84,11.35,35.93
11.03,-0.055,0.249,1.85,3.803,84,11.35,35.87
11.1,-0.091,0.331,1.85,3.801,84,11.35,35.83
11.16,0.223,0.746,1.85,3.801,84,11.35,35.82
11.23,-0.046,0.29,1.85,3.799,84,11.35,35.79
11.29,-0.023,0.249,1.847,3.799,84,11.35,35.78
11.35,0.047,0.249,1.847,3.796,81,11.35,35.77
11.42,0.159,0.228,1.847,3.794,81,11.35,35.75
11.48,0.012,0.249,1.847,3.794,81,11.35,35.71
11.55,-0.044,0.29,1.847,3.791,81,11.35,35.7
11.61,-0.029,0.269,1.845,3.791,81,11.35,35.67
11.68,-0.036,0.269,1.845,3.791,81,11.35,35.59
11.74,-0.028,0.249,1.845,3.791,81,11.35,35.56
11.81,-0.022,0.269,1.845,3.79,81,11.35,35.54
11.87,-0.069,0.269,1.843,3.789,81,11.35,35.52
11.94,0.239,0.746,1.842,3.786,81,11.35,35.52
12.0,-0.035,0.249,1.842,3.786,81,11.35,35.51
12.06,-0.012,0.269,1.842,3.784,81,11.35,35.49
12.13,0.043,0.249,1.842,3.785,81,11.35,35.49
12.19,0.162,0.269,1.842,3.784,81,11.35,35.49
12.26,0.059,0.269,1.841,3.784,81,11.35,35.49
12.32,-0.035,0.249,1.84,3.781,76,11.35,35.48
12.39,-0.028,0.228,1.84,3.781,76,11.35,35.47
12.45,-0.03,0.269,1.84,3.781,76,11.35,35.42
12.52,-0.04,0.228,1.84,3.779,76,11.35,35.38
12.58,-0.004,0.29,1.838,3.779,76,11.35,35.4
12.65,-0.061,0.269,1.838,3.776,76,11.35,35.42
12.71,-0.001,0.497,1.836,3.775,76,11.35,35.51
12.77,0.183,0.642,1.837,3.774,76,11.35,35.52
12.84,-0.03,0.249,1.837,3.774,76,11.35,35.58
12.9,0.006,0.249,1.837,3.771,76,11.35,35.67
12.97,0.097,0.249,1.835,3.771,74,11.35,35.74
13.03,0.137,0.269,1.835,3.771,74,11.35,35.82
13.1,-0.038,0.249,1.835,3.77,74,11.35,35.92
13.16,-0.043,0.29,1.835,3.769,74,11.35,36.03
13.23,-0.037,0.269,1.835,3.769,74,11.35,36.07
13.29,-0.046,0.269,1.833,3.766,74,11.35,36.1
13.35,-0.014,0.269,1.832,3.766,74,11.35,36.18
13.42,-0.075,0.269,1.832,3.766,74,11.35,36.25
13.48,0.105,0.642,1.832,3.766,74,11.35,36.35
13.55,0.063,0.559,1.832,3.764,74,11.35,36.45
13.61,-0.024,0.249,1.832,3.764,74,11.35,36.51
13.68,0.019,0.269,1.831,3.764,74,11.35,36.59
13.74,0.119,0.269,1.83,3.761,74,11.35,36.68
13.81,0.104,0.228,1.83,3.761,74,11.35,36.75
13.87,-0.041,0.269,1.83,3.761,78,11.35,36.83
13.94,-0.033,0.249,1.83,3.759,78,11.35,36.87
14.0,-0.034,0.207,1.827,3.759,78,11.35,36.84
14.06,-0.011,0.29,1.827,3.759,78,11.35,36.82
14.13,-0.058,0.269,1.827,3.757,78,11.35,36.78
14.19,-0.084,0.352,1.827,3.756,78,11.35,36.69
14.26,0.238,0.746,1.827,3.756,78,11.35,36.64
14.32,-0.042,0.311,1.827,3.754,78,11.35,36.56
14.39,-0.014,0.249,1.826,3.754,78,11.35,36.48
14.45,0.055,0.228,1.825,3.752,81,11.35,36.39
14.52,0.147,0.269,1.825,3.751,81,11.35,36.35
14.58,-0.016,0.228,1.825,3.751,81,11.35,36.27
14.65,-0.052,0.29,1.825,3.75,81,11.35,36.21
14.71,-0.036,0.249,1.825,3.749,81,11.35,36.13
14.77,-0.044,0.228,1.825,3.749,81,11.35,36.01
14.84,-0.046,0.269,1.822,3.746,81,11.35,35.93
14.9,-0.014,0.269,1.822,3.746,81,11.35,35.88
14.97,-0.078,0.249,1.822,3.744,81,11.35,35.86
15.03,0.163,0.642,1.822,3.744,81,11.35,35.84
15.1,0.013,0.518,1.821,3.741,81,11.35,35.83
15.16,-0.03,0.29,1.82,3.741,81,11.35,35.81
15.23,0.016,0.228,1.82,3.739,74,11.35,35.79
15.29,0.125,0.249,1.82,3.739,74,11.35,35.79
15.35,0.105,0.228,1.82,3.737,74,11.35,35.78
15.42,-0.042,0.29,1.82,3.736,74,11.35,35.76
15.48,-0.037,0.269,1.817,3.736,74,11.35,35.77
15.55,-0.034,0.228,1.817,3.734,74,11.35,35.73
15.61,-0.047,0.269,1.817,3.734,74,11.35,35.66
15.68,-0.05,0.249,1.817,3.731,74,11.35,35.65
15.74,-0.018,0.249,1.817,3.731,74,11.35,35.62
15.81,-0.067,0.249,1.817,3.731,74,11.35,35.62
15.87,0.079,0.539,1.816,3.729,74,11.35,35.62
15.94,0.112,0.559,1.816,3.729,74,11.35,35.61
16.0,-0.025,0.249,1.815,3.726,74,11.35,35.6
16.06,0.014,0.228,1.815,3.726,70,11.35,35.59
16.13,0.117,0.269,1.815,3.725,70,11.35,35.56
16.19,0.131,0.249,1.815,3.724,70,11.35,35.54
16.26,-0.037,0.228,1.813,3.721,70,11.35,35.54
16.32,-0.039,0.249,1.812,3.721,70,11.35,35.55
16.39,-0.034,0.269,1.812,3.721,70,11.35,35.51
16.45,-0.048,0.29,1.812,3.72,70,11.35,35.44
16.52,-0.053,0.269,1.812,3.719,70,11.35,35.41
16.58,-0.029,0.269,1.812,3.719,70,11.35,35.37
16.65,-0.056,0.228,1.811,3.716,70,11.35,35.35
16.71,-0.076,0.352,1.81,3.715,70,11.35,35.32
16.77,0.243,0.663,1.81,3.714,70,11.35,35.29
16.84,-0.038,0.228,1.81,3.714,70,11.35,35.31
16.9,-0.011,0.269,1.81,3.713,70,11.35,35.34
16.97,0.069,0.269,1.808,3.712,69,11.35,35.33
17.03,0.166,0.249,1.807,3.71,69,11.35,35.35
17.1,-0.011,0.269,1.807,3.709,69,11.35,35.35
17.16,-0.052,0.269,1.807,3.709,69,11.35,35.36
17.23,-0.042,0.228,1.807,3.709,69,11.35,35.35
17.29,-0.054,0.269,1.807,3.707,69,11.35,35.3
17.35,-0.066,0.29,1.807,3.705,69,11.35,35.32
17.42,-0.061,0.269,1.805,3.704,69,11.35,35.37
17.48,-0.056,0.249,1.805,3.704,69,11.35,35.46
17.55,-0.095,0.269,1.805,3.704,69,11.35,35.55
17.61,0.209,0.787,1.805,3.702,69,11.35,35.64
17.68,-0.061,0.269,1.805,3.702,69,11.35,35.74
17.74,-0.038,0.269,1.802,3.699,69,11.35,35.86
17.81,0.025,0.249,1.802,3.699,70,11.35,35.97
17.87,0.144,0.228,1.802,3.698,70,11.35,36.08
17.94,0.007,0.269,1.802,3.695,70,11.35,36.18
18.0,-0.073,0.269,1.802,3.697,70,11.35,36.28
18.06,-0.058,0.269,1.802,3.695,70,11.35,36.37
18.13,-0.065,0.249,1.802,3.694,70,11.35,36.4
18.19,-0.072,0.228,1.8,3.693,70,11.35,36.46
18.26,-0.052,0.29,1.8,3.693,70,11.35,36.55
18.32,-0.098,0.249,1.8,3.692,70,11.35,36.61
18.39,0.208,0.767,1.8,3.69,70,11.35,36.68
18.45,-0.073,0.414,1.8,3.689,70,11.35,36.71
18.52,-0.039,0.249,1.798,3.688,70,11.35,36.75
18.58,0.015,0.29,1.797,3.687,75,11.34,36.83
18.65,0.131,0.29,1.797,3.687,75,11.34,36.88
18.71,0.034,0.207,1.797,3.685,75,11.35,36.88
18.77,-0.064,0.269,1.797,3.682,75,11.35,36.84
18.84,-0.048,0.269,1.797,3.684,75,11.34,36.77
18.9,-0.055,0.269,1.797,3.683,75,11.34,36.66
18.97,-0.038,0.228,1.795,3.682,75,11.35,36.56
19.03,-0.059,0.249,1.795,3.682,75,11.34,36.52
19.1,-0.092,0.249,1.795,3.679,75,11.34,36.44
19.16,0.231,0.787,1.795,3.679,75,11.35,36.39
19.23,-0.048,0.311,1.795,3.677,75,11.34,36.33
19.29,-0.022,0.249,1.793,3.677,75,11.34,36.26
19.35,0.045,0.249,1.792,3.677,79,11.34,36.2
19.42,0.157,0.249,1.792,3.677,79,11.34,36.15
19.48,0.005,0.228,1.792,3.674,79,11.35,36.11
19.55,-0.054,0.311,1.792,3.674,79,11.34,36.06
19.61,-0.037,0.249,1.792,3.672,79,11.34,36.0
19.68,-0.04,0.29,1.791,3.672,79,11.35,35.9
19.74,-0.041,0.414,1.79,3.67,79,11.34,35.82
19.81,-0.016,0.29,1.79,3.669,79,11.34,35.76
19.87,-0.073,0.249,1.79,3.669,79,11.34,35.72
19.94,0.22,0.58,1.79,3.668,79,11.34,35.69
20.0,-0.027,0.518,1.787,3.665,79,11.34,35.66
20.06,-0.02,0.249,1.787,3.665,79,11.34,35.64
20.13,0.028,0.249,1.787,3.664,75,11.34,35.64
20.19,0.151,0.29,1.787,3.664,75,11.34,35.63
20.26,0.098,0.228,1.787,3.664,75,11.34,35.61
20.32,-0.037,0.29,1.787,3.664,75,11.34,35.6
20.39,-0.025,0.29,1.786,3.662,75,11.34,35.59
20.45,-0.024,0.29,1.785,3.662,75,11.34,35.54
20.52,-0.035,0.249,1.785,3.662,75,11.34,35.49
20.58,-0.004,0.249,1.785,3.662,75,11.34,35.48
20.65,-0.053,0.311,1.785,3.66,75,11.34,35.47
20.71,-0.047,0.352,1.783,3.658,75,11.34,35.49
20.77,0.237,0.684,1.785,3.657,75,11.34,35.49
20.84,-0.028,0.269,1.782,3.657,75,11.34,35.52
20.9,0.005,0.249,1.782,3.658,75,11.34,35.53
20.97,0.096,0.207,1.782,3.657,75,11.34,35.54
21.03,0.17,0.249,1.782,3.654,75,11.34,35.51
21.1,-0.014,0.249,1.782,3.654,75,11.34,35.49
21.16,-0.033,0.249,1.78,3.654,75,11.34,35.48
21.23,-0.022,0.269,1.78,3.654,75,11.34,35.45
21.29,-0.033,0.269,1.78,3.652,75,11.34,35.41
21.35,-0.044,0.269,1.78,3.652,75,11.34,35.38
21.42,-0.009,0.29,1.78,3.65,75,11.34,35.41
21.48,-0.06,0.228,1.78,3.649,75,11.34,35.41
21.55,0.025,0.518,1.777,3.649,75,11.34,35.43
21.61,0.164,0.684,1.777,3.649,75,11.34,35.43
21.68,-0.029,0.249,1.777,3.648,75,11.34,35.46
21.74,0.005,0.269,1.777,3.647,75,11.34,35.49
21.81,0.104,0.228,1.777,3.647,72,11.34,35.54
21.87,0.142,0.269,1.776,3.644,72,11.34,35.62
21.94,-0.041,0.249,1.775,3.644,72,11.34,35.69
22.0,-0.046,0.269,1.775,3.642,72,11.34,35.8
22.06,-0.04,0.249,1.775,3.64,72,11.34,35.87
22.13,-0.052,0.269,1.775,3.639,72,11.34,35.92
22.19,-0.049,0.269,1.775,3.639,72,11.34,36.0
22.26,-0.036,0.249,1.774,3.637,72,11.34,36.07
22.32,-0.08,0.228,1.773,3.637,72,11.34,36.16
22.39,0.223,0.684,1.773,3.637,72,11.34,36.25
22.45,-0.06,0.29,1.773,3.637,72,11.34,36.31
22.52,-0.03,0.249,1.773,3.637,72,11.34,36.39
22.58,0.027,0.228,1.773,3.634,74,11.34,36.45
22.65,0.142,0.249,1.771,3.634,74,11.34,36.52
22.71,0.028,0.29,1.771,3.634,74,11.34,36.59
22.77,-0.066,0.29,1.77,3.633,74,11.34,36.67
22.84,-0.05,0.249,1.77,3.632,74,11.34,36.73
22.9,-0.056,0.249,1.77,3.63,74,11.34,36.78
22.97,-0.027,0.249,1.77,3.632,74,11.34,36.84
23.03,-0.088,0.249,1.77,3.629,74,11.34,36.94
23.1,-0.088,0.414,1.768,3.628,74,11.34,37.02
23.16,0.21,0.787,1.768,3.627,74,11.34,37.08
23.23,-0.053,0.29,1.768,3.627,74,11.34,37.11
23.29,-0.015,0.269,1.768,3.625,74,11.34,37.11
23.35,0.072,0.29,1.768,3.625,80,11.34,37.08
23.42,0.131,0.29,1.768,3.625,80,11.34,37.02
23.48,-0.045,0.228,1.765,3.625,80,11.34,36.94
23.55,-0.056,0.207,1.765,3.625,80,11.34,36.85
23.61,-0.044,0.269,1.765,3.625,80,11.34,36.72
23.68,-0.045,0.249,1.765,3.625,80,11.34,36.61
23.74,-0.028,0.249,1.765,3.622,80,11.34,36.54
23.81,-0.092,0.269,1.765,3.62,80,11.34,36.5
23.87,0.143,0.663,1.763,3.62,80,11.34,36.43
23.94,0.01,0.601,1.763,3.621,80,11.34,36.39
24.0,-0.044,0.249,1.763,3.62,80,11.34,36.33
24.06,0.005,0.249,1.763,3.62,80,11.34,36.27
24.13,0.122,0.269,1.763,3.62,80,11.34,36.23
24.19,0.095,0.269,1.763,3.62,80,11.34,36.17
24.26,-0.053,0.29,1.76,3.618,80,11.33,36.11
24.32,-0.044,0.29,1.76,3.617,80,11.33,36.05
24.39,-0.036,0.269,1.76,3.617,80,11.33,35.97
24.45,-0.045,0.29,1.76,3.617,80,11.34,35.87
24.52,-0.009,0.29,1.76,3.617,80,11.34,35.82
24.58,-0.067,0.249,1.76,3.616,80,11.33,35.77
24.65,-0.056,0.352,1.76,3.617,80,11.33,35.74
24.71,0.234,0.912,1.758,3.615,80,11.34,35.72
24.77,-0.032,0.249,1.758,3.616,80,11.33,35.7
24.84,0.002,0.269,1.758,3.617,80,11.34,35.64
24.9,0.096,0.269,1.758,3.617,75,11.33,35.61
24.97,0.172,0.249,1.758,3.617,75,11.34,35.61
25.03,-0.013,0.249,1.758,3.617,75,11.34,35.61
25.1,-0.032,0.249,1.755,3.615,75,11.33,35.58
25.16,-0.02,0.269,1.755,3.615,75,11.33,35.54
25.23,-0.029,0.249,1.755,3.615,75,11.33,35.48
25.29,-0.037,0.228,1.755,3.615,75,11.34,35.44
25.35,-0.004,0.249,1.755,3.612,75,11.33,35.43
25.42,-0.061,0.249,1.755,3.612,75,11.34,35.42
25.48,0.123,0.601,1.755,3.61,75,11.33,35.43
25.55,0.081,0.559,1.753,3.61,75,11.33,35.43
25.61,-0.019,0.249,1.753,3.61,75,11.33,35.44
25.68,0.022,0.228,1.753,3.607,72,11.33,35.45
25.74,0.136,0.228,1.753,3.607,72,11.34,35.47
25.81,0.137,0.29,1.753,3.607,72,11.33,35.49
25.87,-0.034,0.249,1.753,3.607,72,11.33,35.49
25.94,-0.034,0.269,1.751,3.607,72,11.33,35.52
26.0,-0.031,0.249,1.753,3.605,72,11.33,35.53
26.06,-0.042,0.249,1.75,3.607,72,11.33,35.52
26.13,-0.051,0.269,1.75,3.605,72,11.33,35.56
26.19,-0.022,0.249,1.75,3.602,72,11.33,35.62
26.26,-0.065,0.269,1.75,3.602,72,11.33,35.69
26.32,-0.043,0.414,1.75,3.602,72,11.33,35.8
26.39,0.211,0.725,1.749,3.602,72,11.33,35.87
26.45,-0.033,0.249,1.748,3.6,72,11.33,35.97
26.52,0.002,0.249,1.748,3.6,72,11.33,36.08
26.58,0.091,0.228,1.748,3.6,70,11.33,36.16
26.65,0.155,0.269,1.748,3.597,70,11.33,36.24
26.71,-0.033,0.269,1.748,3.597,70,11.33,36.32
26.77,-0.046,0.269,1.748,3.596,70,11.33,36.41
26.84,-0.037,0.29,1.748,3.592,70,11.33,36.47
26.9,-0.049,0.269,1.745,3.593,70,11.33,36.51
26.97,-0.019,0.249,1.745,3.595,70,11.33,36.56
27.03,-0.077,0.269,1.745,3.593,70,11.33,36.65
27.1,-0.02,0.477,1.745,3.592,70,11.33,36.73
27.16,0.177,0.704,1.745,3.591,70,11.33,36.78
27.23,-0.038,0.311,1.745,3.591,70,11.33,36.79
27.29,0.0,0.269,1.743,3.59,70,11.33,36.78
27.35,0.097,0.269,1.743,3.59,77,11.33,36.76
27.42,0.128,0.249,1.743,3.59,77,11.33,36.75
27.48,-0.048,0.228,1.743,3.59,77,11.33,36.72
27.55,-0.049,0.249,1.743,3.588,77,11.33,36.67
27.61,-0.041,0.269,1.743,3.587,77,11.33,36.59
27.68,-0.053,0.228,1.743,3.586,77,11.33,36.48
27.74,-0.046,0.29,1.74,3.585,77,11.33,36.43
27.81,-0.042,0.249,1.74,3.585,77,11.33,36.35
27.87,-0.084,0.228,1.74,3.585,77,11.33,36.29
27.94,0.233,0.642,1.74,3.583,77,11.33,36.25
28.0,-0.051,0.311,1.739,3.583,77,11.33,36.2
28.06,-0.027,0.249,1.738,3.582,77,11.33,36.16
28.13,0.034,0.228,1.739,3.581,74,11.33,36.11
28.19,0.162,0.269,1.738,3.581,74,11.33,36.06
28.26,0.041,0.228,1.738,3.58,74,11.33,36.01
28.32,-0.051,0.269,1.738,3.58,74,11.33,35.97
28.39,-0.034,0.249,1.738,3.578,74,11.33,35.93
28.45,-0.034,0.249,1.738,3.577,74,11.33,35.84
28.52,-0.047,0.311,1.735,3.577,74,11.33,35.76
28.58,-0.047,0.311,1.735,3.577,74,11.33,35.72
28.65,-0.023,0.228,1.735,3.575,74,11.33,35.69
28.71,-0.071,0.29,1.735,3.573,74,11.33,35.69
28.77,0.235,0.663,1.735,3.572,74,11.33,35.68
28.84,-0.035,0.497,1.735,3.572,74,11.33,35.66
28.9,-0.018,0.249,1.734,3.572,74,11.33,35.66
28.97,0.033,0.29,1.733,3.57,70,11.33,35.64
29.03,0.16,0.29,1.733,3.57,70,11.33,35.61
29.1,0.093,0.269,1.733,3.57,70,11.33,35.6
29.16,-0.039,0.269,1.733,3.568,70,11.33,35.59
29.23,-0.031,0.249,1.733,3.567,70,11.33,35.6
29.29,-0.028,0.331,1.733,3.567,70,11.33,35.57
29.35,-0.041,0.269,1.731,3.567,70,11.33,35.53
29.42,-0.047,0.249,1.73,3.566,70,11.33,35.49
29.48,-0.038,0.228,1.73,3.565,70,11.33,35.48
29.55,-0.027,0.311,1.73,3.565,70,11.33,35.45
29.61,-0.065,0.249,1.73,3.562,70,11.33,35.45
29.68,0.248,0.767,1.73,3.562,70,11.33,35.46
29.74,-0.025,0.311,1.729,3.562,70,11.33,35.47
29.81,-0.006,0.269,1.728,3.561,70,11.33,35.45
29.87,0.053,0.269,1.728,3.557,67,11.33,35.46
29.94,0.186,0.269,1.728,3.56,67,11.33,35.48
30.0,0.061,0.249,1.728,3.56,67,11.33,35.49
30.06,-0.04,0.269,1.728,3.558,67,11.33,35.49
30.13,-0.029,0.311,1.728,3.557,67,11.33,35.51
30.19,-0.031,0.29,1.726,3.557,67,11.33,35.46
30.26,-0.044,0.29,1.725,3.556,67,11.33,35.43
30.32,-0.05,0.269,1.725,3.555,67,11.33,35.43
30.39,-0.026,0.249,1.725,3.555,67,11.33,35.43
30.45,-0.052,0.269,1.725,3.552,67,11.33,35.44
30.52,-0.071,0.394,1.725,3.551,67,11.33,35.47
30.58,0.246,0.725,1.723,3.551,67,11.33,35.47
30.65,-0.034,0.269,1.723,3.551,67,11.33,35.5
30.71,-0.011,0.249,1.723,3.55,67,11.33,35.53
30.77,0.065,0.311,1.723,3.55,67,11.33,35.57
30.84,0.17,0.269,1.723,3.548,67,11.33,35.61
30.9,-0.014,0.269,1.723,3.548,67,11.33,35.68
30.97,-0.06,0.249,1.723,3.547,67,11.33,35.78
31.03,-0.049,0.249,1.72,3.547,67,11.33,35.85
31.1,-0.058,0.269,1.72,3.545,67,11.33,35.88
31.16,-0.067,0.269,1.72,3.542,67,11.33,35.95
31.23,-0.038,0.228,1.72,3.543,67,11.33,36.04
31.29,-0.088,0.249,1.72,3.545,67,11.33,36.14
31.35,0.011,0.58,1.72,3.542,67,11.33,36.25
31.42,0.115,0.642,1.719,3.542,67,11.33,36.35
31.48,-0.049,0.228,1.718,3.54,67,11.33,36.45
31.55,-0.008,0.249,1.718,3.54,73,11.33,36.53
31.61,0.092,0.29,1.718,3.54,73,11.33,36.6
31.68,0.119,0.249,1.718,3.54,73,11.33,36.68
31.74,-0.061,0.249,1.718,3.538,73,11.33,36.75
31.81,-0.065,0.249,1.718,3.536,73,11.33,36.83
31.87,-0.061,0.228,1.716,3.535,73,11.33,36.86
31.94,-0.056,0.249,1.718,3.535,73,11.33,36.91
32.0,-0.059,0.269,1.716,3.535,73,11.33,36.98
32.06,-0.103,0.228,1.715,3.535,73,11.33,37.02
32.13,0.211,0.787,1.715,3.535,73,11.33,37.01
32.19,-0.073,0.29,1.715,3.535,73,11.33,36.98
32.26,-0.042,0.249,1.715,3.535,73,11.33,36.91
32.32,0.019,0.269,1.715,3.535,80,11.33,36.84
32.39,0.137,0.249,1.714,3.534,80,11.33,36.78
32.45,0.014,0.249,1.713,3.533,80,11.33,36.7
32.52,-0.075,0.29,1.713,3.533,80,11.33,36.63
32.58,-0.06,0.269,1.713,3.531,80,11.33,36.56
32.65,-0.065,0.249,1.713,3.531,80,11.33,36.45
32.71,-0.035,0.228,1.713,3.533,80,11.33,36.37
32.77,-0.09,0.228,1.711,3.533,80,11.33,36.3
32.84,-0.099,0.249,1.71,3.534,80,11.33,36.23
32.9,0.216,0.684,1.71,3.535,80,11.33,36.17
32.97,-0.067,0.29,1.71,3.535,80,11.33,36.12
33.03,-0.036,0.249,1.71,3.535,80,11.33,36.06
33.1,0.05,0.249,1.71,3.536,80,11.33,36.02
33.16,0.14,0.29,1.71,3.538,80,11.33,35.98
33.23,-0.041,0.249,1.709,3.538,80,11.32,35.93
33.29,-0.065,0.249,1.708,3.538,80,11.32,35.91
33.35,-0.057,0.228,1.708,3.539,80,11.33,35.87
33.42,-0.059,0.228,1.708,3.54,80,11.33,35.81
33.48,-0.028,0.269,1.708,3.538,80,11.33,35.76
33.55,-0.068,0.29,1.708,3.538,80,11.32,35.74
33.61,-0.091,0.394,1.708,3.538,80,11.33,35.71
33.68,0.238,0.787,1.706,3.538,80,11.33,35.69
33.74,-0.042,0.249,1.706,3.538,80,11.33,35.69
33.81,-0.015,0.228,1.708,3.538,80,11.33,35.69
33.87,0.064,0.249,1.708,3.539,76,11.33,35.66
33.94,0.018,0.228,1.705,3.54,76,11.33,35.66
34.0,-0.029,0.228,1.705,3.538,76,11.33,35.64
34.06,-0.043,0.269,1.705,3.538,76,11.33,35.62
34.13,-0.03,0.249,1.705,3.538,76,11.33,35.61
34.19,-0.036,0.249,1.706,3.539,76,11.32,35.57
34.26,-0.034,0.228,1.706,3.538,76,11.32,35.52
34.32,-0.03,0.29,1.705,3.538,76,11.32,35.52
34.39,-0.074,0.311,1.705,3.538,76,11.32,35.5
34.45,0.238,0.704,1.704,3.538,76,11.33,35.5
34.52,-0.041,0.373,1.703,3.538,76,11.32,35.5
34.58,-0.022,0.249,1.705,3.538,76,11.32,35.49
34.65,0.036,0.269,1.703,3.538,75,11.33,35.49
34.71,0.164,0.249,1.703,3.536,75,11.32,35.49
34.77,0.047,0.228,1.703,3.535,75,11.32,35.5
34.84,-0.049,0.249,1.703,3.535,75,11.32,35.49
34.9,-0.038,0.228,1.703,3.535,75,11.32,35.51
34.97,-0.04,0.269,1.703,3.533,75,11.32,35.48
35.03,-0.053,0.249,1.703,3.533,75,11.32,35.46
35.1,-0.024,0.249,1.701,3.531,75,11.33,35.49
35.16,-0.081,0.228,1.7,3.53,75,11.32,35.53
35.23,-0.033,0.497,1.7,3.53,75,11.32,35.59
35.29,0.174,0.704,1.7,3.529,75,11.32,35.65
35.35,-0.054,0.29,1.7,3.528,75,11.32,35.71
35.42,-0.019,0.29,1.7,3.528,75,11.32,35.79
35.48,0.076,0.249,1.7,3.528,74,11.32,35.86
35.55,0.127,0.228,1.7,3.525,74,11.32,35.95
35.61,-0.06,0.228,1.7,3.525,74,11.32,36.04
35.68,-0.071,0.269,1.699,3.525,74,11.32,36.12
35.74,-0.062,0.228,1.698,3.525,74,11.32,36.2
35.81,-0.067,0.249,1.698,3.523,74,11.32,36.24
35.87,-0.051,0.249,1.698,3.521,74,11.32,36.29
35.94,-0.108,0.249,1.698,3.523,74,11.32,36.39
36.0,0.18,0.684,1.698,3.523,74,11.32,36.46
36.06,-0.081,0.497,1.696,3.523,74,11.32,36.56
36.13,-0.059,0.249,1.695,3.523,74,11.32,36.63
36.19,-0.007,0.269,1.695,3.523,79,11.32,36.73
36.26,0.106,0.249,1.695,3.523,79,11.32,36.81
36.32,0.04,0.249,1.695,3.52,79,11.32,36.86
36.39,-0.079,0.228,1.695,3.52,79,11.32,36.92
36.45,-0.062,0.29,1.695,3.52,79,11.32,36.97
36.52,-0.064,0.249,1.694,3.52,79,11.32,36.95
36.58,-0.037,0.269,1.693,3.52,79,11.32,36.9
36.65,-0.091,0.29,1.693,3.518,79,11.32,36.86
36.71,-0.106,0.352,1.693,3.518,79,11.32,36.79
36.77,0.215,0.746,1.693,3.518,79,11.32,36.72
36.84,-0.066,0.269,1.693,3.518,79,11.32,36.65
36.9,-0.036,0.269,1.693,3.515,79,11.32,36.6
36.97,0.049,0.228,1.69,3.515,80,11.32,36.51
37.03,0.132,0.249,1.69,3.515,80,11.32,36.42
37.1,-0.047,0.249,1.69,3.515,80,11.32,36.34
37.16,-0.072,0.249,1.69,3.513,80,11.32,36.24
37.23,-0.055,0.269,1.69,3.513,80,11.32,36.14
37.29,-0.066,0.269,1.69,3.513,80,11.32,36.02
37.35,-0.071,0.249,1.69,3.513,80,11.32,35.95
37.42,-0.038,0.249,1.688,3.51,80,11.32,35.89
37.48,-0.097,0.249,1.688,3.51,80,11.32,35.85
37.55,0.098,0.58,1.688,3.51,80,11.32,35.82
37.61,0.042,0.601,1.688,3.509,80,11.32,35.79
37.68,-0.052,0.269,1.688,3.508,80,11.32,35.76
37.74,-0.008,0.228,1.688,3.508,73,11.32,35.76
37.81,0.106,0.228,1.688,3.505,73,11.32,35.74
37.87,0.108,0.249,1.685,3.504,73,11.32,35.73
37.94,-0.058,0.228,1.685,3.503,73,11.32,35.71
38.0,-0.056,0.249,1.685,3.503,73,11.32,35.71
38.06,-0.049,0.311,1.685,3.503,73,11.32,35.68
38.13,-0.061,0.269,1.685,3.503,73,11.32,35.63
38.19,-0.068,0.207,1.685,3.5,73,11.32,35.6
38.26,-0.039,0.249,1.685,3.5,73,11.32,35.59
38.32,-0.073,0.249,1.684,3.5,73,11.32,35.6
38.39,-0.076,0.394,1.683,3.498,73,11.32,35.59
38.45,0.23,0.725,1.683,3.498,73,11.32,35.59
38.52,-0.047,0.249,1.683,3.498,73,11.32,35.59
38.58,-0.016,0.29,1.683,3.498,73,11.32,35.6
38.65,0.071,0.311,1.683,3.496,70,11.32,35.6
38.71,0.162,0.29,1.683,3.495,70,11.32,35.61
38.77,-0.024,0.29,1.682,3.495,70,11.32,35.62
38.84,-0.054,0.269,1.682,3.495,70,11.32,35.63
38.9,-0.04,0.186,1.681,3.495,70,11.32,35.62
38.97,-0.048,0.29,1.681,3.495,70,11.32,35.57
39.03,-0.057,0.249,1.681,3.494,70,11.32,35.54
39.1,-0.058,0.269,1.681,3.493,70,11.32,35.54
39.16,-0.028,0.249,1.681,3.493,70,11.32,35.56
39.23,-0.075,0.269,1.679,3.493,70,11.31,35.57
39.29,0.209,0.663,1.678,3.493,70,11.32,35.58
39.35,-0.011,0.559,1.678,3.49,70,11.32,35.58
39.42,-0.019,0.29,1.678,3.49,70,11.32,35.59
39.48,0.017,0.29,1.678,3.49,68,11.32,35.6
39.55,0.135,0.249,1.678,3.488,68,11.31,35.63
39.61,0.099,0.249,1.678,3.488,68,11.32,35.66
39.68,-0.059,0.29,1.677,3.488,68,11.32,35.78
39.74,-0.055,0.29,1.676,3.488,68,11.32,35.77
39.81,-0.054,0.249,1.676,3.486,68,11.31,35.8
39.87,-0.068,0.228,1.676,3.485,68,11.32,35.82
39.94,-0.07,0.311,1.676,3.485,68,11.32,35.89
40.0,-0.046,0.269,1.676,3.485,68,11.32,36.0
40.06,-0.096,0.269,1.676,3.483,68,11.32,36.1
40.13,0.204,0.725,1.676,3.483,68,11.32,36.19
40.19,-0.073,0.435,1.673,3.483,68,11.32,36.28
40.26,-0.045,0.269,1.673,3.481,68,11.32,36.37
40.32,0.005,0.228,1.673,3.48,72,11.32,36.45
40.39,0.123,0.269,1.673,3.48,72,11.32,36.52
40.45,0.053,0.228,1.673,3.48,72,11.32,36.59
40.52,-0.076,0.228,1.673,3.48,72,11.32,36.68
40.58,-0.062,0.228,1.673,3.478,72,11.32,36.75
40.65,-0.064,0.29,1.672,3.478,72,11.32,36.77
40.71,-0.053,0.228,1.672,3.478,72,11.31,36.82
40.77,-0.066,0.269,1.671,3.475,72,11.31,36.87
40.84,-0.104,0.269,1.671,3.475,72,11.31,36.87
40.9,0.208,0.787,1.671,3.475,72,11.32,36.86
40.97,-0.068,0.311,1.671,3.475,72,11.31,36.8
41.03,-0.037,0.228,1.671,3.475,72,11.31,36.72
41.1,0.027,0.249,1.671,3.473,78,11.31,36.68
41.16,0.145,0.311,1.668,3.473,78,11.32,36.62
41.23,0.007,0.29,1.668,3.473,78,11.31,36.57
41.29,-0.068,0.269,1.668,3.471,78,11.31,36.52
41.35,-0.051,0.269,1.668,3.47,78,11.31,36.47
41.42,-0.057,0.269,1.668,3.47,78,11.31,36.38
41.48,-0.049,0.269,1.668,3.469,78,11.31,36.29
41.55,-0.046,0.269,1.666,3.468,78,11.31,36.24
41.61,-0.092,0.228,1.667,3.468,78,11.31,36.18
41.68,0.224,0.704,1.666,3.468,78,11.31,36.14
41.74,-0.061,0.373,1.666,3.466,78,11.31,36.1
41.81,-0.036,0.249,1.666,3.465,78,11.31,36.08
41.87,0.022,0.269,1.666,3.465,76,11.31,36.06
41.94,0.149,0.249,1.666,3.465,76,11.31,36.04
42.0,0.053,0.249,1.666,3.465,76,11.31,36.03
42.06,-0.057,0.269,1.664,3.463,76,11.31,36.02
42.13,-0.042,0.269,1.663,3.463,76,11.31,35.99
42.19,-0.04,0.269,1.663,3.463,76,11.31,35.93
42.26,-0.051,0.269,1.663,3.461,76,11.31,35.88
42.32,-0.022,0.269,1.663,3.46,76,11.31,35.86
42.39,-0.057,0.249,1.663,3.46,76,11.31,35.85
42.45,-0.079,0.249,1.663,3.46,76,11.31,35.85
42.52,0.245,0.767,1.662,3.459,76,11.31,35.83
42.58,-0.033,0.331,1.661,3.458,76,11.31,35.82
42.65,-0.007,0.228,1.661,3.458,76,11.31,35.83
42.71,0.071,0.249,1.661,3.458,73,11.31,35.83
42.77,0.185,0.249,1.661,3.458,73,11.31,35.83
42.84,0.012,0.249,1.661,3.456,73,11.31,35.83
42.9,-0.035,0.249,1.661,3.455,73,11.31,35.85
42.97,-0.021,0.249,1.661,3.455,73,11.31,35.84
43.03,-0.026,0.207,1.659,3.455,73,11.31,35.78
43.1,-0.035,0.228,1.658,3.454,73,11.31,35.75
43.16,-0.021,0.249,1.658,3.453,73,11.31,35.75
43.23,-0.024,0.269,1.658,3.453,73,11.31,35.75
43.29,-0.057,0.311,1.658,3.451,73,11.31,35.75
43.35,-0.041249999999999995,0.746,1.658,3.45,73,11.31,35.75
43.42,-0.015,0.269,1.658,3.45,73,11.31,35.75
43.48,0.006,0.249,1.658,3.449,73,11.31,35.76
43.55,0.072,0.29,1.656,3.449,73,11.31,35.76
43.61,0.198,0.249,1.656,3.448,73,11.31,35.77
43.68,0.05,0.228,1.656,3.448,73,11.31,35.76
43.74,-0.026,0.269,1.656,3.448,70,11.31,35.76
43.81,-0.014,0.269,1.656,3.448,70,11.31,35.77
43.87,-0.017,0.228,1.656,3.446,70,11.31,35.72
43.94,-0.028,0.228,1.656,3.446,70,11.31,35.69
44.0,-0.033,0.249,1.653,3.446,70,11.31,35.67
44.06,-0.003,0.249,1.653,3.443,70,11.31,35.69
44.13,-0.045,0.249,1.653,3.443,70,11.31,35.7
44.19,-0.011,0.435,1.653,3.443,70,11.31,35.71
44.26,0.221,0.663,1.653,3.443,70,11.31,35.73
44.32,-0.017,0.249,1.653,3.443,70,11.31,35.76
44.39,0.013,0.269,1.653,3.443,70,11.31,35.77
44.45,0.105,0.269,1.652,3.442,68,11.31,35.81
44.52,0.171,0.249,1.651,3.441,68,11.31,35.86
44.58,-0.022,0.29,1.651,3.441,68,11.31,35.93
44.65,-0.042,0.269,1.651,3.439,68,11.31,36.02
44.71,-0.034,0.29,1.651,3.438,68,11.31,36.08
44.77,-0.045,0.29,1.651,3.438,68,11.31,36.11
44.84,-0.045,0.249,1.651,3.438,68,11.31,36.17
44.9,-0.037,0.29,1.651,3.438,68,11.31,36.27
44.97,-0.08,0.29,1.651,3.436,68,11.31,36.37
45.03,0.224,0.787,1.649,3.436,68,11.31,36.48
45.1,-0.05,0.311,1.648,3.436,68,11.31,36.56
45.16,-0.021,0.249,1.648,3.436,68,11.31,36.67
45.23,0.039,0.228,1.648,3.434,74,11.31,36.76
45.29,0.159,0.29,1.648,3.433,74,11.31,36.85
45.35,0.035,0.249,1.648,3.433,74,11.31,36.94
45.42,-0.052,0.269,1.648,3.433,74,11.31,37.02
45.48,-0.035,0.228,1.647,3.433,74,11.31,37.08
45.55,-0.04,0.269,1.646,3.431,74,11.31,37.1
45.61,-0.011,0.29,1.646,3.431,74,11.31,37.13
45.68,-0.074,0.249,1.646,3.431,74,11.31,37.11
45.74,-0.054,0.373,1.646,3.431,74,11.31,37.03
45.81,0.211,0.684,1.646,3.429,74,11.31,36.96
45.87,-0.042,0.269,1.646,3.428,74,11.31,36.89
45.94,-0.007,0.228,1.646,3.427,74,11.31,36.8
46.0,0.087,0.269,1.644,3.426,80,11.31,36.74
46.06,0.142,0.228,1.643,3.426,80,11.31,36.67
46.13,-0.042,0.249,1.643,3.426,80,11.31,36.61
46.19,-0.053,0.249,1.643,3.426,80,11.31,36.55
46.26,-0.041,0.269,1.643,3.426,80,11.31,36.45
46.32,-0.053,0.249,1.643,3.423,80,11.31,36.33
46.39,-0.02,0.269,1.643,3.423,80,11.31,36.25
46.45,-0.085,0.269,1.641,3.423,80,11.31,36.21
46.52,-0.05,0.414,1.641,3.423,80,11.31,36.16
46.58,0.194,0.704,1.641,3.422,80,11.31,36.14
46.65,-0.053,0.228,1.641,3.421,80,11.31,36.09
46.71,-0.018,0.249,1.641,3.418,80,11.31,36.07
46.77,0.08,0.269,1.641,3.418,78,11.31,36.05
46.84,0.139,0.228,1.641,3.418,78,11.31,36.05
46.9,-0.047,0.249,1.641,3.418,78,11.31,36.03
46.97,-0.06,0.249,1.639,3.421,78,11.31,36.02
47.03,-0.048,0.228,1.638,3.418,78,11.31,35.98
47.1,-0.058,0.29,1.638,3.418,78,11.31,35.91
47.16,-0.059,0.249,1.638,3.418,78,11.31,35.88
47.23,-0.035,0.228,1.638,3.417,78,11.31,35.85
47.29,-0.091,0.249,1.638,3.416,78,11.31,35.84
47.35,0.202,0.601,1.638,3.416,78,11.31,35.82
47.42,-0.04,0.539,1.638,3.416,78,11.31,35.8
47.48,-0.041,0.269,1.636,3.413,78,11.31,35.78
47.55,0.007,0.249,1.636,3.413,72,11.31,35.78
47.61,0.13,0.269,1.636,3.413,72,11.31,35.78
47.68,0.085,0.228,1.636,3.413,72,11.31,35.77
47.74,-0.057,0.269,1.636,3.413,72,11.31,35.76
47.81,-0.049,0.269,1.636,3.413,72,11.31,35.75
47.87,-0.045,0.29,1.636,3.411,72,11.31,35.69
47.94,-0.055,0.269,1.634,3.413,72,11.31,35.6
48.0,-0.064,0.228,1.634,3.412,72,11.31,35.55
48.06,-0.041,0.29,1.633,3.411,72,11.31,35.54
48.13,-0.066,0.207,1.633,3.409,72,11.31,35.54
48.19,-0.083,0.311,1.633,3.409,72,11.31,35.54
48.26,0.241,0.684,1.633,3.411,72,11.31,35.53
48.32,-0.038,0.249,1.633,3.409,72,11.31,35.54
48.39,-0.011,0.249,1.633,3.407,72,11.31,35.54
48.45,0.069,0.269,1.632,3.406,68,11.31,35.54
48.52,0.18,0.228,1.631,3.406,68,11.31,35.55
48.58,0.0,0.228,1.631,3.406,68,11.31,35.58
48.65,-0.049,0.249,1.631,3.406,68,11.31,35.62
48.71,-0.04,0.269,1.631,3.406,68,11.31,35.66
48.77,-0.047,0.29,1.631,3.404,68,11.31,35.65
48.84,-0.058,0.269,1.631,3.403,68,11.31,35.67
48.9,-0.053,0.269,1.631,3.403,68,11.31,35.73
48.97,-0.048,0.228,1.629,3.403,68,11.31,35.82
49.03,-0.085,0.249,1.628,3.403,68,11.31,35.9
49.1,0.222,0.663,1.628,3.404,68,11.31,35.97
49.16,-0.052,0.311,1.628,3.403,68,11.31,36.06
49.23,-0.027,0.249,1.628,3.403,68,11.31,36.13
49.29,0.034,0.311,1.628,3.403,70,11.31,36.22
49.35,0.157,0.269,1.628,3.403,70,11.31,36.3
49.42,0.027,0.269,1.628,3.401,70,11.31,36.39
49.48,-0.064,0.249,1.627,3.401,70,11.31,36.48
49.55,-0.049,0.269,1.626,3.401,70,11.31,36.55
49.61,-0.053,0.228,1.627,3.399,70,11.31,36.58
49.68,-0.065,0.228,1.626,3.398,70,11.31,36.63
49.74,-0.035,0.249,1.626,3.398,70,11.31,36.7
49.81,-0.081,0.29,1.626,3.398,70,11.31,36.79
49.87,-0.038,0.414,1.626,3.396,70,11.31,36.88
49.94,0.187,0.559,1.626,3.396,70,11.31,36.95
50.0,-0.04,0.249,1.623,3.393,70,11.31,37.0
50.06,-0.003,0.228,1.624,3.394,70,11.31,37.05
50.13,0.09,0.249,1.623,3.393,74,11.31,37.07
50.19,0.14,0.29,1.623,3.393,74,11.31,37.05
50.26,-0.043,0.249,1.623,3.393,74,11.31,37.01
50.32,-0.05,0.269,1.623,3.393,74,11.31,36.95
50.39,-0.041,0.29,1.623,3.392,74,11.31,36.87
50.45,-0.053,0.249,1.623,3.391,74,11.31,36.74
50.52,-0.062,0.269,1.623,3.391,74,11.31,36.64
50.58,-0.03,0.249,1.623,3.391,74,11.31,36.57
50.65,-0.082,0.228,1.621,3.391,74,11.31,36.54
50.71,0.105,0.622,1.621,3.388,74,11.31,36.54
50.77,0.064,0.539,1.621,3.388,74,11.31,36.5
50.84,-0.038,0.311,1.621,3.386,74,11.31,36.44
50.9,0.001,0.249,1.621,3.386,72,11.31,36.37
50.97,0.111,0.269,1.621,3.386,72,11.31,36.33
51.03,0.118,0.249,1.621,3.386,72,11.31,36.28
51.1,-0.054,0.228,1.618,3.386,72,11.31,36.23
51.16,-0.053,0.249,1.618,3.386,72,11.31,36.2
51.23,-0.043,0.228,1.618,3.386,72,11.31,36.13
51.29,-0.054,0.249,1.618,3.384,72,11.31,36.03
51.35,-0.06,0.228,1.618,3.384,72,11.31,35.98
51.42,-0.044,0.311,1.618,3.383,72,11.29,35.93
51.48,-0.06,0.249,1.618,3.383,72,11.31,35.92
51.55,-0.083,0.331,1.618,3.383,72,11.31,35.9
51.61,0.246,0.704,1.616,3.383,72,11.31,35.87
51.68,-0.037,0.29,1.616,3.381,72,11.31,35.85
51.74,-0.015,0.269,1.616,3.381,72,11.31,35.83
51.81,0.055,0.29,1.616,3.381,68,11.31,35.82
51.87,0.176,0.269,1.616,3.381,68,11.31,35.81
51.94,0.011,0.249,1.616,3.381,68,11.31,35.82
52.0,-0.054,0.249,1.616,3.381,68,11.29,35.81
52.06,-0.039,0.249,1.616,3.378,68,11.29,35.81
52.13,-0.042,0.269,1.614,3.378,68,11.29,35.74
52.19,-0.053,0.228,1.613,3.378,68,11.29,35.69
52.26,-0.06,0.249,1.613,3.378,68,11.31,35.66
52.32,-0.04,0.228,1.613,3.378,68,11.31,35.65
52.39,-0.073,0.269,1.613,3.376,68,11.29,35.66
52.45,0.119,0.622,1.613,3.376,68,11.31,35.65
52.52,0.074,0.58,1.613,3.376,68,11.29,35.64
52.58,-0.028,0.269,1.613,3.376,68,11.29,35.61
52.65,0.009,0.228,1.612,3.376,68,11.29,35.6
52.71,0.122,0.228,1.612,3.373,68,11.31,35.59
52.77,0.14,0.269,1.611,3.373,68,11.31,35.6
52.84,-0.041,0.249,1.611,3.373,68,11.29,35.6
52.9,-0.043,0.249,1.611,3.372,68,11.29,35.61
52.97,-0.035,0.249,1.611,3.371,68,11.29,35.6
53.03,-0.048,0.269,1.611,3.371,68,11.29,35.57
53.1,-0.06,0.228,1.611,3.371,68,11.29,35.56
53.16,-0.051,0.29,1.609,3.369,68,11.29,35.59
53.23,-0.07,0.249,1.608,3.371,68,11.29,35.65
53.29,-0.08,0.414,1.608,3.368,68,11.29,35.7
53.35,0.233,0.704,1.608,3.368,68,11.29,35.78
53.42,-0.043,0.331,1.608,3.368,68,11.29,35.84
53.48,-0.018,0.228,1.608,3.368,68,11.29,35.9
53.55,0.063,0.29,1.608,3.368,70,11.29,35.97
53.61,0.163,0.249,1.608,3.368,70,11.29,36.08
53.68,-0.026,0.228,1.608,3.368,70,11.29,36.18
53.74,-0.067,0.29,1.606,3.366,70,11.29,36.28
53.81,-0.053,0.228,1.606,3.366,70,11.29,36.35
53.87,-0.064,0.228,1.606,3.366,70,11.29,36.37
53.94,-0.074,0.29,1.606,3.364,70,11.29,36.44
54.0,-0.06,0.249,1.606,3.364,70,11.29,36.53
54.06,-0.09,0.249,1.606,3.363,70,11.29,36.62
54.13,0.219,0.746,1.606,3.363,70,11.29,36.73
54.19,-0.064,0.352,1.606,3.363,70,11.29,36.8
54.26,-0.033,0.29,1.606,3.363,70,11.29,36.88
54.32,0.02,0.269,1.606,3.363,74,11.29,36.96
54.39,0.14,0.249,1.603,3.362,74,11.29,37.01
54.45,0.045,0.249,1.603,3.361,74,11.29,37.03
54.52,-0.069,0.269,1.603,3.361,74,11.29,36.98
54.58,-0.055,0.207,1.603,3.361,74,11.29,36.9
54.65,-0.06,0.228,1.603,3.361,74,11.29,36.78
54.71,-0.069,0.249,1.603,3.36,74,11.29,36.67
54.77,-0.058,0.228,1.603,3.359,74,11.29,36.59
54.84,-0.085,0.249,1.603,3.359,74,11.29,36.5
54.9,-0.023,0.373,1.603,3.359,74,11.29,36.47
54.97,0.184,0.622,1.601,3.359,74,11.29,36.42
55.03,-0.048,0.269,1.601,3.357,74,11.29,36.37
55.1,-0.013,0.249,1.601,3.356,74,11.29,36.31
55.16,0.082,0.269,1.601,3.356,75,11.29,36.27
55.23,0.136,0.249,1.601,3.356,75,11.29,36.22
55.29,-0.051,0.269,1.601,3.356,75,11.29,36.17
55.35,-0.056,0.228,1.601,3.356,75,11.29,36.12
55.42,-0.052,0.249,1.601,3.355,75,11.29,36.07
55.48,-0.062,0.269,1.599,3.354,75,11.29,35.97
55.55,-0.072,0.249,1.598,3.354,75,11.29,35.92
55.61,-0.062,0.186,1.598,3.354,75,11.29,35.9
55.68,-0.083,0.249,1.597,3.354,75,11.29,35.86
55.74,-0.059,0.352,1.597,3.352,75,11.29,35.86
55.81,0.21,0.725,1.598,3.352,75,11.29,35.83
55.87,-0.051,0.249,1.598,3.351,75,11.29,35.83
55.94,0.056,0.249,1.598,3.351,75,11.29,35.81
56.0,0.103,0.29,1.597,3.351,70,11.29,35.82
56.06,0.146,0.269,1.596,3.351,70,11.29,35.81
56.13,-0.045,0.29,1.597,3.351,70,11.29,35.8
56.19,-0.066,0.249,1.597,3.35,70,11.29,35.82
56.26,-0.056,0.249,1.597,3.349,70,11.29,35.75
56.32,-0.064,0.249,1.596,3.349,70,11.29,35.74
56.39,-0.073,0.29,1.596,3.349,70,11.29,35.72
56.45,-0.072,0.228,1.596,3.347,70,11.29,35.73
56.52,-0.06,0.269,1.596,3.346,70,11.29,35.72
56.58,-0.089,0.207,1.595,3.346,70,11.29,35.73
56.65,0.227,0.704,1.594,3.346,70,11.29,35.71
56.71,-0.037,0.414,1.594,3.346,70,11.29,35.71
56.77,-0.024,0.249,1.594,3.345,70,11.29,35.71
56.84,0.021,0.269,1.594,3.344,69,11.29,35.71
56.9,0.151,0.228,1.594,3.344,69,11.29,35.73
56.97,0.054,0.269,1.592,3.344,69,11.29,35.71
57.03,-0.063,0.249,1.592,3.342,69,11.29,35.72
57.1,-0.049,0.269,1.592,3.341,69,11.29,35.72
57.16,-0.05,0.228,1.591,3.341,69,11.29,35.68
57.23,-0.062,0.269,1.591,3.341,69,11.29,35.65
57.29,-0.047,0.269,1.591,3.341,69,11.29,35.65
57.35,-0.047,0.311,1.591,3.341,69,11.29,35.66
57.42,-0.081,0.249,1.591,3.341,69,11.29,35.68
57.48,0.055,0.622,1.591,3.341,69,11.29,35.66
57.55,0.112,0.601,1.591,3.339,69,11.29,35.68
57.61,-0.04,0.29,1.59,3.339,69,11.29,35.74
57.68,-0.007,0.249,1.59,3.339,69,11.29,35.75
57.74,0.098,0.249,1.589,3.339,69,11.29,35.79
57.81,0.131,0.249,1.589,3.339,69,11.29,35.86
57.87,-0.054,0.249,1.589,3.339,69,11.29,35.93
57.94,-0.06,0.249,1.589,3.336,69,11.29,36.03
58.0,-0.052,0.269,1.589,3.336,69,11.29,36.12
58.06,-0.063,0.249,1.589,3.336,69,11.29,36.14
58.13,-0.07,0.269,1.589,3.336,69,11.29,36.21
58.19,-0.051,0.228,1.589,3.336,69,11.29,36.3
58.26,-0.084,0.249,1.587,3.335,69,11.28,36.38
58.32,0.221,0.725,1.589,3.334,69,11.29,36.45
58.39,-0.053,0.477,1.587,3.334,69,11.28,36.52
58.45,-0.027,0.269,1.586,3.334,69,11.29,36.61
58.52,0.022,0.249,1.586,3.334,72,11.29,36.69
58.58,0.141,0.269,1.586,3.334,72,11.29,36.76
58.65,0.077,0.228,1.586,3.332,72,11.29,36.84
58.71,-0.058,0.249,1.586,3.332,72,11.29,36.91
58.77,-0.044,0.249,1.586,3.331,72,11.29,36.96
58.84,-0.046,0.249,1.586,3.331,72,11.28,36.96
58.9,-0.058,0.228,1.586,3.331,72,11.29,36.94
58.97,-0.048,0.228,1.585,3.331,72,11.28,36.92
59.03,-0.072,0.228,1.584,3.329,72,11.29,36.85
59.1,-0.057,0.394,1.584,3.329,72,11.29,36.79
59.16,0.222,0.704,1.584,3.329,72,11.28,36.72
59.23,-0.038,0.269,1.584,3.329,72,11.28,36.63
59.29,-0.007,0.228,1.584,3.329,72,11.29,36.55
59.35,0.081,0.249,1.584,3.329,74,11.28,36.46
59.42,0.152,0.29,1.582,3.326,74,11.29,36.4
59.48,-0.037,0.269,1.582,3.326,74,11.28,36.34
59.55,-0.058,0.269,1.581,3.326,74,11.28,36.28
59.61,-0.045,0.228,1.581,3.326,74,11.28,36.22
59.68,-0.055,0.249,1.581,3.326,74,11.28,36.12
59.74,-0.064,0.228,1.581,3.325,74,11.28,36.04
59.81,-0.061,0.228,1.581,3.325,74,11.28,35.99
59.87,-0.055,0.249,1.581,3.324,74,11.28,35.95
59.94,-0.077,0.228,1.581,3.324,74,11.28,35.93
60.0,0.243,0.725,1.581,3.324,74,11.29,35.9
60.06,-0.036,0.311,1.58,3.324,74,11.28,35.89
60.13,-0.018,0.228,1.579,3.324,74,11.28,35.87
60.19,0.041,0.249,1.579,3.322,69,11.28,35.86
60.26,0.17,0.29,1.579,3.321,69,11.28,35.85
60.32,0.054,0.29,1.579,3.321,69,11.28,35.83
60.39,-0.05,0.269,1.579,3.321,69,11.28,35.83
60.45,-0.036,0.228,1.579,3.321,69,11.28,35.84
60.52,-0.036,0.249,1.579,3.321,69,11.28,35.78
60.58,-0.049,0.269,1.579,3.321,69,11.28,35.73
60.65,-0.053,0.228,1.579,3.319,69,11.28,35.73
60.71,-0.042,0.228,1.577,3.319,69,11.29,35.71
60.77,-0.058,0.228,1.576,3.319,69,11.28,35.71
60.84,-0.07,0.29,1.576,3.319,69,11.28,35.71
60.9,0.255,0.746,1.576,3.319,69,11.28,35.69
60.97,-0.029,0.311,1.576,3.316,69,11.28,35.7
61.03,-0.006,0.228,1.576,3.316,69,11.28,35.69
61.1,0.072,0.29,1.576,3.316,67,11.28,35.69
61.16,0.183,0.249,1.576,3.316,67,11.28,35.69
61.23,0.003,0.269,1.576,3.316,67,11.28,35.69
61.29,-0.048,0.249,1.575,3.316,67,11.28,35.7
61.35,-0.035,0.249,1.574,3.316,67,11.28,35.68
61.42,-0.041,0.29,1.574,3.314,67,11.28,35.58
61.48,-0.054,0.228,1.574,3.314,67,11.28,35.55
61.55,-0.061,0.249,1.574,3.314,67,11.28,35.58
61.61,-0.041,0.29,1.574,3.314,67,11.28,35.6
61.68,-0.079,0.249,1.574,3.314,67,11.28,35.63
61.74,0.198,0.622,1.574,3.311,67,11.28,35.65
61.81,-0.024,0.559,1.574,3.311,67,11.28,35.7
61.87,-0.035,0.249,1.574,3.311,67,11.28,35.76
61.94,0.007,0.249,1.574,3.311,68,11.28,35.82
62.0,0.124,0.249,1.572,3.311,68,11.28,35.88
62.06,0.104,0.249,1.571,3.311,68,11.28,35.96
62.13,-0.063,0.269,1.571,3.309,68,11.28,36.03
62.19,-0.058,0.249,1.571,3.309,68,11.28,36.11
62.26,-0.056,0.29,1.571,3.309,68,11.28,36.14
62.32,-0.066,0.249,1.571,3.309,68,11.28,36.16
62.39,-0.069,0.249,1.571,3.309,68,11.28,36.22
62.45,-0.063,0.228,1.571,3.309,68,11.28,36.28
62.52,-0.088,0.228,1.571,3.307,68,11.28,36.39
62.58,0.22,0.767,1.57,3.306,68,11.28,36.45
62.65,-0.059,0.29,1.571,3.306,68,11.28,36.54
62.71,-0.03,0.269,1.569,3.306,68,11.28,36.62
62.77,0.026,0.249,1.57,3.306,72,11.28,36.72
62.84,0.149,0.207,1.569,3.306,72,11.28,36.78
62.9,0.039,0.228,1.569,3.304,72,11.28,36.85
62.97,-0.062,0.29,1.569,3.304,72,11.28,36.94
63.03,-0.048,0.249,1.569,3.304,72,11.28,36.97
63.1,-0.051,0.249,1.569,3.304,72,11.28,36.97
63.16,-0.064,0.249,1.569,3.304,72,11.28,36.93
63.23,-0.045,0.29,1.569,3.304,72,11.28,36.88
63.29,-0.081,0.249,1.569,3.302,72,11.28,36.79
63.35,0.115,0.622,1.567,3.302,72,11.28,36.73
63.42,0.06,0.539,1.566,3.301,72,11.28,36.64
63.48,-0.036,0.228,1.566,3.301,72,11.28,36.58
63.55,0.004,0.228,1.566,3.301,75,11.28,36.5
63.61,0.11,0.249,1.566,3.3,75,11.28,36.41
63.68,0.116,0.29,1.566,3.3,75,11.28,36.34
63.74,-0.057,0.228,1.566,3.299,75,11.28,36.26
63.81,-0.056,0.228,1.566,3.299,75,11.28,36.22
63.87,-0.047,0.249,1.566,3.299,75,11.28,36.12
63.94,-0.058,0.228,1.566,3.299,75,11.28,36.04
64.0,-0.065,0.249,1.564,3.299,75,11.28,35.97
64.06,-0.051,0.249,1.564,3.296,75,11.28,35.93
64.13,-0.076,0.249,1.564,3.296,75,11.28,35.9
64.19,-0.001,0.456,1.564,3.296,75,11.28,35.88
64.26,0.181,0.642,1.564,3.296,75,11.28,35.86
64.32,-0.037,0.249,1.564,3.296,75,11.28,35.85
64.39,-0.003,0.269,1.564,3.296,75,11.28,35.83
64.45,0.094,0.228,1.564,3.295,70,11.28,35.81
64.52,0.153,0.269,1.562,3.295,70,11.28,35.77
64.58,-0.038,0.249,1.562,3.294,70,11.28,35.76
64.65,-0.053,0.269,1.561,3.294,70,11.28,35.76
64.71,-0.042,0.249,1.561,3.294,70,11.28,35.73
64.77,-0.05,0.228,1.561,3.294,70,11.28,35.67
64.84,-0.058,0.228,1.561,3.294,70,11.28,35.64
64.9,-0.045,0.311,1.561,3.292,70,11.28,35.63
64.97,-0.068,0.249,1.561,3.291,70,11.28,35.61
65.03,-0.049,0.414,1.561,3.291,70,11.28,35.61
65.1,0.234,0.725,1.561,3.291,70,11.28,35.6
65.16,-0.032,0.228,1.561,3.291,70,11.28,35.6
65.23,-0.001,0.249,1.559,3.291,70,11.28,35.62
65.29,0.087,0.228,1.559,3.29,70,11.28,35.63
65.35,0.174,0.249,1.559,3.289,70,11.28,35.62
65.42,-0.018,0.249,1.559,3.289,70,11.28,35.64
65.48,-0.045,0.249,1.559,3.289,70,11.28,35.64
65.55,-0.036,0.269,1.559,3.289,70,11.28,35.64
65.61,-0.044,0.269,1.559,3.289,70,11.28,35.6
65.68,-0.055,0.249,1.559,3.289,70,11.28,35.59
65.74,-0.045,0.228,1.559,3.286,70,11.28,35.61
65.81,-0.067,0.249,1.559,3.286,70,11.28,35.63
65.87,-0.056,0.394,1.559,3.286,70,11.28,35.7
65.94,0.221,0.704,1.556,3.286,70,11.28,35.74
66.0,-0.042,0.311,1.556,3.286,70,11.28,35.84
66.06,-0.014,0.311,1.556,3.284,70,11.28,35.93
66.13,0.075,0.249,1.556,3.284,71,11.28,36.05
66.19,0.16,0.249,1.556,3.284,71,11.28,36.15
66.26,-0.036,0.269,1.556,3.284,71,11.28,36.24
66.32,-0.062,0.228,1.556,3.284,71,11.28,36.34
66.39,-0.049,0.269,1.556,3.284,71,11.28,36.42
66.45,-0.057,0.29,1.556,3.284,71,11.28,36.45
66.52,-0.077,0.269,1.555,3.284,71,11.28,36.52
66.58,-0.08,0.228,1.554,3.282,71,11.28,36.61
66.65,-0.059,0.331,1.554,3.281,71,11.28,36.68
66.71,0.218,0.725,1.554,3.281,71,11.28,36.8
66.77,-0.035,0.269,1.554,3.281,71,11.28,36.89
66.84,-0.001,0.249,1.554,3.281,71,11.28,37.06
66.9,0.085,0.249,1.555,3.281,77,11.28,37.08
66.97,0.147,0.228,1.554,3.281,77,11.28,37.13
67.03,-0.04,0.249,1.554,3.281,77,11.28,37.18
67.1,-0.056,0.249,1.554,3.279,77,11.28,37.18
67.16,-0.048,0.249,1.554,3.279,77,11.28,37.11
67.23,-0.061,0.228,1.554,3.279,77,11.28,37.03
67.29,-0.049,0.29,1.554,3.279,77,11.28,36.95
67.35,-0.09,0.269,1.551,3.279,77,11.28,36.85
67.42,0.096,0.58,1.551,3.279,77,11.28,36.76
67.48,0.057,0.601,1.551,3.279,77,11.28,36.68
67.55,-0.05,0.269,1.551,3.277,77,11.28,36.61
67.61,-0.011,0.249,1.551,3.277,79,11.28,36.55
67.68,0.099,0.249,1.551,3.276,79,11.28,36.48
67.74,0.096,0.29,1.551,3.276,79,11.28,36.43
67.81,-0.072,0.29,1.55,3.276,79,11.28,36.39
67.87,-0.068,0.269,1.551,3.276,79,11.28,36.35
67.94,-0.057,0.228,1.549,3.276,79,11.28,36.26
68.0,-0.069,0.269,1.549,3.274,79,11.28,36.19
68.06,-0.054,0.249,1.549,3.274,79,11.28,36.14
68.13,-0.092,0.249,1.549,3.274,79,11.28,36.1
68.19,-0.029,0.373,1.549,3.274,79,11.28,36.05
68.26,0.175,0.642,1.549,3.274,79,11.28,36.03
68.32,-0.056,0.269,1.549,3.274,79,11.28,36.01
68.39,-0.022,0.228,1.549,3.273,79,11.28,35.99
68.45,0.077,0.249,1.549,3.272,76,11.28,35.98
68.52,0.131,0.29,1.547,3.272,76,11.28,35.97
68.58,-0.055,0.269,1.549,3.272,76,11.28,35.96
68.65,-0.065,0.249,1.547,3.272,76,11.28,35.96
68.71,-0.055,0.249,1.546,3.272,76,11.28,35.93
68.77,-0.063,0.249,1.546,3.272,76,11.28,35.88
68.84,-0.071,0.269,1.546,3.272,76,11.28,35.86
68.9,-0.053,0.249,1.546,3.269,76,11.28,35.86
68.97,-0.087,0.228,1.546,3.269,76,11.28,35.87
69.03,-0.023,0.435,1.546,3.269,76,11.28,35.85
69.1,0.183,0.684,1.546,3.269,76,11.28,35.84
69.16,-0.047,0.269,1.546,3.269,76,11.28,35.83
69.23,-0.015,0.228,1.546,3.269,76,11.28,35.83
69.29,0.082,0.269,1.544,3.268,71,11.28,35.84
69.35,0.146,0.249,1.544,3.267,71,11.28,35.84
69.42,-0.046,0.29,1.545,3.267,71,11.28,35.84
69.48,-0.059,0.249,1.544,3.267,71,11.28,35.83
69.55,-0.052,0.228,1.544,3.267,71,11.28,35.82
69.61,-0.06,0.249,1.544,3.267,71,11.28,35.77
69.68,-0.069,0.228,1.544,3.267,71,11.28,35.75
69.74,-0.058,0.269,1.544,3.265,71,11.28,35.74
69.81,-0.071,0.269,1.544,3.264,71,11.28,35.75
69.87,-0.086,0.249,1.544,3.264,71,11.28,35.74
69.94,0.231,0.725,1.542,3.264,71,11.28,35.72
70.0,-0.045,0.29,1.541,3.264,71,11.28,35.74
70.06,-0.027,0.249,1.541,3.264,71,11.28,35.74
70.13,0.037,0.228,1.541,3.263,69,11.28,35.73
70.19,0.169,0.269,1.541,3.262,69,11.28,35.75
70.26,0.024,0.207,1.541,3.262,69,11.28,35.73
70.32,-0.059,0.269,1.541,3.262,69,11.28,35.72
70.39,-0.044,0.228,1.541,3.262,69,11.28,35.75
70.45,-0.047,0.269,1.541,3.262,69,11.28,35.7
70.52,-0.059,0.269,1.541,3.262,69,11.28,35.68
70.58,-0.061,0.269,1.54,3.262,69,11.28,35.7
70.65,-0.045,0.269,1.539,3.26,69,11.28,35.72
70.71,-0.079,0.207,1.539,3.262,69,11.28,35.76
70.77,0.176,0.601,1.539,3.259,69,11.28,35.81
70.84,0.001,0.539,1.539,3.259,69,11.28,35.83
70.9,-0.03,0.249,1.539,3.259,69,11.28,35.91
70.97,0.011,0.29,1.539,3.259,69,11.28,35.99
71.03,0.127,0.29,1.539,3.258,69,11.28,36.06
71.1,0.116,0.249,1.539,3.257,69,11.28,36.15
71.16,-0.053,0.29,1.537,3.257,69,11.28,36.24
71.23,-0.051,0.228,1.537,3.257,69,11.28,36.35
71.29,-0.042,0.228,1.539,3.257,69,11.28,36.38
71.35,-0.055,0.269,1.537,3.257,69,11.28,36.42
71.42,-0.041,0.249,1.536,3.257,69,11.28,36.48
71.48,-0.08,0.269,1.536,3.257,69,11.28,36.55
71.55,0.024,0.601,1.536,3.255,69,11.28,36.62
71.61,0.137,0.559,1.536,3.254,69,11.28,36.72
71.68,-0.034,0.228,1.536,3.254,69,11.28,36.8
71.74,0.004,0.269,1.536,3.254,75,11.28,36.86
71.81,0.104,0.249,1.536,3.254,75,11.28,36.92
71.87,0.13,0.249,1.536,3.254,75,11.28,36.96
71.94,-0.05,0.228,1.535,3.254,75,11.28,36.97
72.0,-0.05,0.249,1.534,3.254,75,11.28,36.95
72.06,-0.047,0.249,1.534,3.253,75,11.28,36.88
72.13,-0.06,0.228,1.534,3.252,75,11.28,36.78
72.19,-0.052,0.207,1.534,3.252,75,11.28,36.72
72.26,-0.083,0.249,1.534,3.252,75,11.28,36.63
72.32,-0.074,0.414,1.534,3.252,75,11.28,36.56
72.39,0.226,0.746,1.534,3.25,75,11.28,36.5
72.45,-0.051,0.249,1.534,3.249,75,11.28,36.45
72.52,-0.022,0.228,1.534,3.249,75,11.28,36.42
72.58,0.063,0.228,1.534,3.249,76,11.28,36.37
72.65,0.146,0.228,1.534,3.249,76,11.28,36.31
72.71,-0.042,0.269,1.534,3.249,76,11.28,36.27
72.77,-0.069,0.228,1.534,3.249,76,11.28,36.24
72.84,-0.053,0.269,1.531,3.249,76,11.28,36.19
72.9,-0.061,0.249,1.531,3.249,76,11.28,36.11
72.97,-0.07,0.228,1.531,3.248,76,11.28,36.04
73.03,-0.057,0.29,1.531,3.247,76,11.27,36.02
73.1,-0.078,0.249,1.531,3.247,76,11.28,36.0
73.16,-0.086,0.352,1.531,3.247,76,11.28,35.99
73.23,0.242,0.746,1.531,3.247,76,11.28,35.97
73.29,-0.046,0.269,1.531,3.247,76,11.28,35.95
73.35,-0.021,0.269,1.531,3.245,76,11.28,35.95
73.42,0.055,0.249,1.53,3.245,70,11.28,35.96
73.48,0.165,0.269,1.53,3.244,70,11.28,35.94
73.55,-0.012,0.269,1.529,3.244,70,11.28,35.94
73.61,-0.061,0.249,1.529,3.244,70,11.28,35.96
73.68,-0.048,0.249,1.529,3.244,70,11.28,35.93
73.74,-0.054,0.228,1.529,3.244,70,11.28,35.88
73.81,-0.058,0.269,1.529,3.244,70,11.28,35.83
73.87,-0.053,0.269,1.529,3.244,70,11.28,35.82
73.94,-0.061,0.29,1.529,3.244,70,11.28,35.81
74.0,-0.081,0.249,1.529,3.242,70,11.28,35.81
74.06,0.237,0.704,1.529,3.242,70,11.28,35.79
74.13,-0.039,0.331,1.527,3.242,70,11.28,35.79
74.19,-0.02,0.249,1.527,3.243,70,11.28,35.79
74.26,0.04,0.29,1.526,3.242,70,11.28,35.77
74.32,0.169,0.269,1.526,3.242,70,11.28,35.78
74.39,0.041,0.249,1.526,3.242,70,11.28,35.77
74.45,-0.053,0.249,1.526,3.242,70,11.28,35.76
74.52,-0.038,0.228,1.526,3.239,70,11.28,35.77
74.58,-0.04,0.249,1.526,3.239,70,11.28,35.73
74.65,-0.052,0.207,1.526,3.239,70,11.28,35.69
74.71,-0.057,0.269,1.526,3.239,70,11.28,35.7
74.77,-0.037,0.228,1.526,3.239,70,11.28,35.69
74.84,-0.071,0.249,1.525,3.239,70,11.28,35.69
74.9,0.227,0.642,1.526,3.238,70,11.28,35.7
74.97,-0.02,0.518,1.525,3.237,70,11.28,35.7
75.03,-0.021,0.249,1.524,3.237,70,11.28,35.7
75.1,0.022,0.269,1.524,3.237,69,11.28,35.69
75.16,0.142,0.269,1.524,3.237,69,11.28,35.71
75.23,0.11,0.269,1.524,3.237,69,11.28,35.71
75.29,-0.046,0.228,1.524,3.237,69,11.28,35.71
75.35,-0.039,0.269,1.524,3.237,69,11.28,35.72
75.42,-0.036,0.228,1.524,3.235,69,11.28,35.68
75.48,-0.051,0.228,1.524,3.234,69,11.28,35.64
75.55,-0.057,0.249,1.524,3.234,69,11.28,35.64
75.61,-0.04,0.311,1.521,3.234,69,11.28,35.61
75.68,-0.066,0.331,1.522,3.234,69,11.28,35.61
75.74,-0.021,0.456,1.521,3.234,69,11.28,35.62
75.81,0.203,0.622,1.521,3.234,69,11.28,35.65
75.87,-0.033,0.269,1.521,3.233,69,11.28,35.69
75.94,-0.004,0.249,1.521,3.232,69,11.28,35.69
76.0,0.084,0.249,1.521,3.232,70,11.28,35.73
76.06,0.157,0.311,1.521,3.232,70,11.28,35.77
76.13,-0.037,0.249,1.521,3.232,70,11.28,35.84
76.19,-0.057,0.269,1.521,3.232,70,11.28,35.86
76.26,-0.047,0.249,1.521,3.232,70,11.28,35.85
76.32,-0.054,0.269,1.521,3.23,70,11.28,35.88
76.39,-0.064,0.249,1.521,3.23,70,11.28,35.93
76.45,-0.045,0.311,1.519,3.229,70,11.28,36.01
76.52,-0.078,0.269,1.519,3.229,70,11.28,36.1
76.58,0.069,0.704,1.519,3.229,70,11.28,36.21
76.65,0.099,0.58,1.519,3.229,70,11.28,36.29
76.71,-0.032,0.29,1.519,3.229,70,11.28,36.29
76.77,0.006,0.311,1.519,3.229,72,11.28,36.35
76.84,0.108,0.29,1.519,3.229,72,11.28,36.52
76.9,0.135,0.249,1.519,3.229,72,11.28,36.61
76.97,-0.046,0.249,1.519,3.227,72,11.28,36.66
77.03,-0.045,0.311,1.519,3.227,72,11.28,36.7
77.1,-0.05,0.249,1.519,3.227,72,11.28,36.74
77.16,-0.05,0.249,1.517,3.227,72,11.28,36.81
77.23,-0.048,0.269,1.519,3.227,72,11.28,36.9
77.29,-0.078,0.228,1.516,3.227,72,11.28,36.98
77.35,0.233,0.58,1.517,3.225,72,11.28,37.06
77.42,-0.048,0.497,1.517,3.224,72,11.28,37.01
77.48,-0.026,0.269,1.516,3.224,72,11.27,37.02
77.55,0.02,0.269,1.516,3.224,79,11.27,36.96
77.61,0.133,0.228,1.516,3.224,79,11.28,36.9
77.68,0.068,0.228,1.516,3.224,79,11.27,36.88
77.74,-0.063,0.29,1.516,3.222,79,11.27,36.86
77.81,-0.05,0.249,1.516,3.222,79,11.27,36.77
77.87,-0.052,0.29,1.516,3.222,79,11.27,36.62
77.94,-0.066,0.207,1.516,3.224,79,11.27,36.53
78.0,-0.051,0.29,1.515,3.222,79,11.27,36.47
78.06,-0.081,0.249,1.515,3.222,79,11.27,36.38
78.13,0.003,0.497,1.514,3.222,79,11.28,36.33
78.19,0.163,0.622,1.514,3.222,79,11.28,36.27
78.26,-0.046,0.269,1.514,3.22,79,11.27,36.25
78.32,-0.01,0.228,1.514,3.219,79,11.27,36.2
78.39,0.086,0.269,1.514,3.22,75,11.27,36.17
78.45,0.133,0.228,1.514,3.219,75,11.27,36.08
78.52,-0.051,0.249,1.514,3.22,75,11.27,36.02
78.58,-0.059,0.29,1.514,3.219,75,11.27,35.96
78.65,-0.047,0.269,1.514,3.219,75,11.27,35.89
78.71,-0.057,0.228,1.512,3.219,75,11.28,35.8
78.77,-0.062,0.269,1.514,3.219,75,11.27,35.74
78.84,-0.053,0.228,1.511,3.219,75,11.28,35.72
78.9,-0.081,0.249,1.511,3.219,75,11.28,35.75
78.97,-0.054,0.29,1.511,3.219,75,11.27,35.74
79.03,-0.039,0.29,1.511,3.218,75,11.27,35.71
79.1,-0.026,0.249,1.511,3.217,75,11.27,35.71
79.16,0.03,0.249,1.511,3.217,75,11.27,35.67
79.23,0.157,0.228,1.51,3.217,75,11.27,35.66
79.29,0.049,0.249,1.51,3.217,75,11.27,35.65
79.35,-0.054,0.269,1.511,3.217,75,11.27,35.65
79.42,-0.038,0.228,1.511,3.217,75,11.27,35.66
79.48,-0.036,0.269,1.509,3.217,75,11.27,35.65
79.55,-0.049,0.249,1.511,3.217,75,11.27,35.6
79.61,-0.043,0.228,1.51,3.215,75,11.27,35.6
79.68,-0.049,0.249,1.509,3.214,75,11.27,35.61
79.74,-0.074,0.249,1.509,3.214,75,11.27,35.61
79.81,0.245,0.808,1.509,3.214,75,11.27,35.6
79.87,-0.031,0.29,1.509,3.214,75,11.27,35.61
79.94,-0.013,0.249,1.509,3.214,75,11.27,35.65
80.0,0.051,0.249,1.509,3.214,75,11.27,35.65
80.06,0.176,0.249,1.509,3.214,75,11.27,35.66
80.13,0.022,0.249,1.509,3.214,75,11.28,35.69
80.19,-0.051,0.331,1.507,3.212,75,11.27,35.7
80.26,-0.041,0.269,1.508,3.212,75,11.27,35.72
80.32,-0.044,0.228,1.507,3.212,75,11.27,35.7
80.39,-0.047,0.269,1.507,3.212,75,11.27,35.7
80.45,-0.044,0.269,1.507,3.212,75,11.27,35.76
80.52,-0.057,0.29,1.507,3.212,75,11.27,35.85
80.58,-0.078,0.29,1.507,3.212,75,11.27,35.96
80.65,0.238,0.725,1.507,3.209,75,11.27,36.04
80.71,-0.033,0.352,1.507,3.209,75,11.27,36.2
80.77,-0.01,0.249,1.507,3.209,75,11.27,36.21
80.84,0.058,0.311,1.507,3.209,71,11.27,36.29
80.9,0.18,0.269,1.507,3.209,71,11.27,36.37
80.97,0.025,0.228,1.507,3.209,71,11.27,36.45
81.03,-0.045,0.29,1.505,3.209,71,11.27,36.55
81.1,-0.028,0.249,1.504,3.208,71,11.27,36.62
81.16,-0.035,0.249,1.504,3.207,71,11.27,36.66
81.23,-0.039,0.249,1.504,3.207,71,11.27,36.73
81.29,-0.032,0.207,1.504,3.207,71,11.27,36.79
81.35,-0.058,0.249,1.504,3.207,71,11.27,36.87
81.42,0.253,0.746,1.504,3.207,71,11.27,36.95
81.48,-0.028,0.29,1.504,3.207,71,11.27,37.01
81.55,0.0,0.249,1.504,3.207,71,11.27,37.05
81.61,0.055,0.269,1.504,3.207,76,11.27,37.08
81.68,0.174,0.228,1.504,3.204,76,11.27,37.04
81.74,0.064,0.29,1.504,3.204,76,11.27,37.0
81.81,-0.038,0.269,1.502,3.204,76,11.27,36.94
81.87,-0.021,0.269,1.502,3.204,76,11.27,36.84
81.94,-0.025,0.228,1.502,3.204,76,11.27,36.73
82.0,-0.038,0.311,1.502,3.204,76,11.27,36.64
82.06,-0.033,0.249,1.502,3.204,76,11.27,36.57
82.13,-0.038,0.228,1.502,3.204,76,11.27,36.5
82.19,-0.06,0.331,1.502,3.202,76,11.27,36.47
82.26,-0.0424390243902439,0.808,1.502,3.202,76,11.27,36.43
82.32,-0.015,0.331,1.502,3.202,76,11.27,36.39
82.39,0.003,0.269,1.502,3.202,76,11.27,36.34
82.45,0.069,0.249,1.502,3.202,72,11.27,36.28
82.52,0.043,0.311,1.502,3.202,72,11.27,36.24
82.58,-0.001,0.269,1.502,3.202,72,11.27,36.2
82.65,-0.035,0.29,1.499,3.202,72,11.27,36.18
82.71,-0.019,0.249,1.499,3.2,72,11.27,36.13
82.77,-0.019,0.207,1.499,3.199,72,11.27,36.04
82.84,-0.029,0.228,1.499,3.199,72,11.27,35.91
82.9,-0.02,0.249,1.498,3.2,72,11.27,35.9
82.97,-0.029,0.269,1.499,3.199,72,11.27,35.87
83.03,-0.047,0.331,1.499,3.199,72,11.27,35.86
83.1,-0.029895604395604396,0.725,1.499,3.199,72,11.27,35.83
83.16,-0.003,0.29,1.499,3.199,72,11.27,35.82
83.23,0.015,0.249,1.499,3.197,72,11.27,35.83
83.29,0.083,0.228,1.499,3.198,72,11.27,35.81
83.35,0.203,0.249,1.499,3.197,72,11.27,35.79
83.42,0.036,0.269,1.499,3.197,72,11.27,35.77
83.48,-0.028,0.269,1.497,3.197,71,11.27,35.77
83.55,-0.015,0.269,1.497,3.197,71,11.27,35.79
83.61,-0.019,0.269,1.497,3.197,71,11.27,35.73
83.68,-0.032,0.29,1.497,3.197,71,11.27,35.69
83.74,-0.034,0.249,1.497,3.195,71,11.27,35.68
83.81,-0.026,0.269,1.497,3.194,71,11.27,35.65
83.87,-0.053,0.29,1.497,3.194,71,11.27,35.66
83.94,-0.038137096774193545,0.787,1.497,3.194,71,11.27,35.65
84.0,-0.015,0.331,1.497,3.194,71,11.27,35.64
84.06,0.0,0.311,1.497,3.194,71,11.27,35.66
84.13,0.053,0.331,1.497,3.194,70,11.27,35.69
84.19,0.182,0.249,1.495,3.194,70,11.27,35.69
84.26,0.074,0.29,1.494,3.194,70,11.27,35.74
84.32,-0.04,0.29,1.494,3.194,70,11.27,35.74
84.39,-0.029,0.249,1.494,3.192,70,11.27,35.71
84.45,-0.026,0.269,1.494,3.192,70,11.27,35.72
84.52,-0.038,0.311,1.494,3.192,70,11.27,35.69
84.58,-0.037,0.249,1.494,3.192,70,11.27,35.69
84.65,-0.037,0.228,1.494,3.192,70,11.27,35.77
84.71,-0.064,0.269,1.494,3.192,70,11.26,35.98
84.77,0.25,0.849,1.494,3.192,70,11.27,36.13
84.84,-0.027,0.352,1.494,3.192,70,11.26,36.13
84.9,-0.002,0.269,1.494,3.192,70,11.27,36.17
84.97,0.153,0.29,1.494,3.192,72,11.26,36.19
85.03,0.18,0.331,1.493,3.192,72,11.26,36.26
85.1,0.034,0.29,1.492,3.19,72,11.26,36.21
85.16,-0.046,0.228,1.492,3.189,72,11.26,36.43
85.23,-0.028,0.29,1.492,3.189,72,11.26,36.66
85.29,-0.032,0.269,1.493,3.189,72,11.26,36.71
85.35,-0.028,0.249,1.493,3.189,72,11.26,36.71
85.42,-0.049,0.269,1.492,3.189,72,11.26,36.77
85.48,-0.067,0.331,1.492,3.189,72,11.26,36.88
85.55,0.255,0.663,1.492,3.189,72,11.26,37.04
85.61,-0.023,0.269,1.492,3.189,72,11.26,37.15
85.68,0.002,0.249,1.492,3.187,72,11.26,37.22
85.74,0.076,0.249,1.492,3.187,78,11.26,37.18
85.81,0.17,0.249,1.492,3.187,78,11.26,37.05
85.87,-0.009,0.249,1.492,3.187,78,11.26,36.92
85.94,-0.049,0.207,1.49,3.187,78,11.26,36.87
86.0,-0.039,0.269,1.489,3.187,78,11.26,36.83
86.06,-0.048,0.249,1.489,3.187,78,11.26,36.73
86.13,-0.04,0.249,1.489,3.187,78,11.26,36.62
86.19,-0.07,0.269,1.489,3.187,78,11.26,36.5
86.26,-0.071,0.352,1.489,3.186,78,11.26,36.4
86.32,0.24,0.767,1.489,3.185,78,11.26,36.35
86.39,-0.017,0.269,1.489,3.185,78,11.26,36.32
86.45,-0.002,0.29,1.489,3.185,78,11.26,36.29
86.52,0.067,0.249,1.489,3.185,78,11.26,36.24
86.58,0.157,0.249,1.489,3.185,78,11.26,36.14
86.65,-0.027,0.29,1.488,3.185,78,11.26,36.05
86.71,-0.056,0.269,1.488,3.185,78,11.26,35.99
86.77,-0.042,0.311,1.488,3.183,78,11.26,35.98
86.84,-0.05,0.269,1.487,3.185,78,11.26,35.91
86.9,-0.052,0.29,1.487,3.185,78,11.26,35.84
86.97,-0.05,0.269,1.487,3.185,78,11.26,35.81
87.03,-0.079,0.269,1.487,3.182,78,11.26,35.81
87.1,0.234,0.725,1.487,3.182,78,11.26,35.8
87.16,-0.045,0.435,1.487,3.182,78,11.26,35.76
87.23,-0.027,0.269,1.487,3.182,78,11.26,35.72
87.29,0.023,0.269,1.487,3.182,75,11.26,35.71
87.35,0.148,0.311,1.487,3.182,75,11.26,35.69
87.42,0.053,0.249,1.487,3.182,75,11.26,35.68
87.48,-0.059,0.269,1.484,3.182,75,11.26,35.68
87.55,-0.048,0.249,1.485,3.182,75,11.26,35.69
87.61,-0.051,0.29,1.484,3.182,75,11.26,35.65
87.68,-0.063,0.228,1.484,3.18,75,11.26,35.63
87.74,-0.044,0.269,1.484,3.18,75,11.26,35.6
87.81,-0.084,0.269,1.484,3.18,75,11.26,35.57
87.87,0.04,0.559,1.484,3.18,75,11.26,35.54
87.94,0.119,0.663,1.484,3.18,75,11.26,35.49
88.0,-0.043,0.269,1.484,3.18,75,11.26,35.48
88.06,-0.007,0.269,1.484,3.18,75,11.26,35.49
88.13,0.094,0.249,1.484,3.18,75,11.26,35.47
88.19,0.13,0.269,1.484,3.18,75,11.26,35.47
88.26,-0.049,0.228,1.484,3.18,75,11.26,35.47
88.32,-0.052,0.269,1.484,3.178,75,11.26,35.48
88.39,-0.045,0.249,1.484,3.177,75,11.26,35.48
88.45,-0.057,0.269,1.482,3.178,75,11.26,35.44
88.52,-0.049,0.269,1.482,3.177,75,11.26,35.48
88.58,-0.063,0.249,1.482,3.177,75,11.26,35.55
88.65,-0.083,0.331,1.482,3.177,75,11.26,35.59
88.71,0.229,0.767,1.482,3.177,75,11.26,35.65
88.77,-0.043,0.29,1.482,3.177,75,11.26,35.74
88.84,-0.022,0.207,1.482,3.177,75,11.26,35.84
88.9,0.043,0.249,1.482,3.177,74,11.26,35.96
88.97,0.161,0.249,1.482,3.175,74,11.26,36.06
89.03,0.012,0.269,1.482,3.177,74,11.26,36.15
89.1,-0.057,0.29,1.482,3.175,74,11.26,36.27
89.16,-0.044,0.249,1.482,3.175,74,11.26,36.37
89.23,-0.048,0.29,1.482,3.175,74,11.26,36.42
89.29,-0.036,0.311,1.479,3.175,74,11.26,36.49
89.35,-0.079,0.228,1.479,3.175,74,11.26,36.59
89.42,0.164,0.58,1.479,3.175,74,11.26,36.67
89.48,0.001,0.539,1.479,3.175,74,11.26,36.78
89.55,-0.025,0.269,1.479,3.172,74,11.26,36.86
89.61,0.018,0.249,1.479,3.172,81,11.26,36.95
89.68,0.124,0.29,1.479,3.172,81,11.26,37.05
89.74,0.098,0.29,1.479,3.172,81,11.26,37.12
89.81,-0.049,0.249,1.479,3.172,81,11.26,37.17
89.87,-0.039,0.249,1.479,3.172,81,11.26,37.19
89.94,-0.04,0.249,1.479,3.172,81,11.26,37.11
90.0,-0.034,0.249,1.479,3.172,81,11.26,37.04
90.06,-0.07,0.249,1.478,3.172,81,11.26,36.99
90.13,-0.066,0.394,1.479,3.172,81,11.26,36.91
90.19,0.229,0.704,1.477,3.17,81,11.26,36.87
90.26,-0.043,0.269,1.477,3.17,81,11.26,36.79
90.32,-0.011,0.29,1.477,3.17,81,11.26,36.72
90.39,0.07,0.249,1.477,3.17,81,11.26,36.64
90.45,0.14,0.269,1.477,3.17,81,11.26,36.58
90.52,-0.038,0.269,1.477,3.17,81,11.26,36.5
90.58,-0.055,0.249,1.477,3.17,81,11.26,36.43
90.65,-0.051,0.29,1.477,3.168,81,11.26,36.34
90.71,-0.055,0.269,1.477,3.167,81,11.26,36.22
90.77,-0.043,0.249,1.477,3.167,81,11.26,36.13
90.84,-0.063,0.29,1.477,3.167,81,11.26,36.06
90.9,-0.081,0.373,1.475,3.168,81,11.26,35.99
90.97,0.249,0.704,1.475,3.167,81,11.26,35.92
91.03,-0.036,0.249,1.475,3.167,81,11.26,35.91
91.1,-0.011,0.269,1.474,3.167,81,11.26,35.85
91.16,0.056,0.228,1.474,3.167,76,11.26,35.81
91.23,0.163,0.269,1.474,3.167,76,11.26,35.77
91.29,-0.001,0.29,1.474,3.166,76,11.26,35.75
91.35,-0.05,0.249,1.474,3.165,76,11.26,35.71
91.42,-0.037,0.249,1.474,3.165,76,11.26,35.68
91.48,-0.045,0.249,1.474,3.165,76,11.26,35.63
91.55,-0.054,0.269,1.474,3.165,76,11.26,35.59
91.61,-0.041,0.249,1.474,3.165,76,11.26,35.59
91.68,-0.068,0.249,1.474,3.165,76,11.26,35.6
91.74,-0.049,0.414,1.474,3.165,76,11.26,35.59
91.81,0.227,0.684,1.472,3.165,76,11.26,35.58
91.87,-0.034,0.269,1.472,3.165,76,11.26,35.59
91.94,-0.004,0.249,1.472,3.165,76,11.26,35.55
92.0,0.077,0.249,1.472,3.163,72,11.26,35.53
92.06,0.157,0.228,1.472,3.162,72,11.26,35.55
92.13,-0.027,0.249,1.472,3.163,72,11.26,35.58
92.19,-0.053,0.269,1.472,3.162,72,11.26,35.58
92.26,-0.044,0.269,1.472,3.162,72,11.26,35.6
92.32,-0.055,0.249,1.472,3.162,72,11.26,35.58
92.39,-0.062,0.228,1.472,3.162,72,11.26,35.59
92.45,-0.044,0.249,1.472,3.162,72,11.26,35.66
92.52,-0.08,0.269,1.472,3.162,72,11.26,35.74
92.58,0.081,0.622,1.472,3.162,72,11.26,35.82
92.65,0.079,0.539,1.472,3.162,72,11.26,35.89
92.71,-0.034,0.249,1.47,3.161,72,11.26,36.0
92.77,0.006,0.269,1.469,3.16,72,11.26,36.08
92.84,0.107,0.269,1.469,3.16,72,11.26,36.17
92.9,0.132,0.249,1.469,3.16,72,11.26,36.26
92.97,-0.041,0.249,1.469,3.16,72,11.26,36.35
93.03,-0.039,0.249,1.469,3.158,72,11.26,36.44
93.1,-0.032,0.269,1.469,3.16,72,11.26,36.49
93.16,-0.036,0.249,1.469,3.16,72,11.26,36.54
93.23,-0.032,0.269,1.469,3.157,72,11.26,36.62
93.29,-0.061,0.29,1.469,3.157,72,11.26,36.72
93.35,0.25,0.684,1.469,3.157,72,11.26,36.8
93.42,-0.038,0.435,1.469,3.157,72,11.26,36.87
93.48,-0.008,0.269,1.469,3.157,72,11.26,36.96
93.55,0.039,0.228,1.469,3.157,79,11.26,37.05
93.61,0.148,0.249,1.469,3.157,79,11.26,37.1
93.68,0.07,0.249,1.468,3.157,79,11.26,37.13
93.74,-0.044,0.249,1.467,3.156,79,11.26,37.06
93.81,-0.03,0.249,1.467,3.157,79,11.26,36.96
93.87,-0.038,0.249,1.467,3.156,79,11.26,36.85
93.94,-0.04,0.269,1.467,3.155,79,11.26,36.77
94.0,-0.052,0.269,1.467,3.155,79,11.26,36.69
94.06,-0.078,0.249,1.467,3.155,79,11.26,36.61
94.13,0.239,0.704,1.467,3.155,79,11.26,36.55
94.19,-0.046,0.311,1.467,3.155,79,11.26,36.5
94.26,-0.027,0.269,1.467,3.155,79,11.26,36.4
94.32,0.028,0.249,1.467,3.155,78,11.26,36.3
94.39,0.143,0.228,1.467,3.153,78,11.26,36.25
94.45,0.015,0.29,1.467,3.153,78,11.26,36.21
94.52,-0.068,0.269,1.465,3.153,78,11.26,36.16
94.58,-0.053,0.269,1.464,3.152,78,11.26,36.08
94.65,-0.056,0.311,1.464,3.152,78,11.26,35.96
94.71,-0.067,0.249,1.464,3.152,78,11.26,35.87
94.77,-0.051,0.29,1.464,3.152,78,11.26,35.83
94.84,-0.08,0.29,1.464,3.152,78,11.26,35.79
94.9,-0.079,0.394,1.464,3.152,78,11.26,35.76
94.97,0.229,0.684,1.464,3.152,78,11.26,35.74
95.03,-0.052,0.269,1.464,3.15,78,11.26,35.71
95.1,-0.025,0.207,1.464,3.15,78,11.26,35.71
95.16,0.052,0.207,1.464,3.15,73,11.26,35.69
95.23,0.142,0.207,1.464,3.15,73,11.26,35.67
95.29,-0.039,0.228,1.464,3.15,73,11.26,35.69
95.35,-0.072,0.228,1.464,3.15,73,11.26,35.68
95.42,-0.062,0.249,1.464,3.15,73,11.26,35.68
95.48,-0.072,0.29,1.462,3.15,73,11.26,35.62
95.55,-0.079,0.228,1.462,3.15,73,11.26,35.59
95.61,-0.061,0.269,1.462,3.15,73,11.26,35.58
95.68,-0.091,0.311,1.462,3.15,73,11.26,35.58
95.74,-0.065,0.352,1.462,3.15,73,11.26,35.59
95.81,0.2,0.725,1.462,3.148,73,11.26,35.59
95.87,-0.055,0.269,1.462,3.147,73,11.26,35.6
95.94,-0.023,0.29,1.462,3.147,73,11.26,35.61
96.0,0.062,0.228,1.462,3.147,71,11.26,35.6
96.06,0.139,0.228,1.462,3.147,71,11.26,35.61
96.13,-0.048,0.269,1.462,3.147,71,11.26,35.64
96.19,-0.071,0.269,1.462,3.147,71,11.26,35.64
96.26,-0.064,0.269,1.462,3.147,71,11.26,35.64
96.32,-0.076,0.269,1.462,3.147,71,11.26,35.63
96.39,-0.084,0.249,1.459,3.147,71,11.26,35.63
96.45,-0.064,0.269,1.46,3.145,71,11.26,35.69
96.52,-0.104,0.249,1.459,3.147,71,11.26,35.79
96.58,0.129,0.622,1.459,3.145,71,11.26,35.86
96.65,-0.01,0.477,1.459,3.145,71,11.26,35.93
96.71,-0.058,0.249,1.459,3.145,71,11.26,36.02
96.77,-0.016,0.249,1.459,3.145,73,11.26,36.07
96.84,0.089,0.228,1.459,3.145,73,11.26,36.16
96.9,0.082,0.311,1.459,3.145,73,11.26,36.26
96.97,-0.082,0.29,1.459,3.145,73,11.26,36.35
97.03,-0.077,0.269,1.459,3.145,73,11.26,36.44
97.1,-0.074,0.269,1.459,3.145,73,11.26,36.48
97.16,-0.066,0.269,1.459,3.143,73,11.26,36.52
97.23,-0.093,0.29,1.459,3.143,73,11.26,36.62
97.29,-0.112,0.352,1.459,3.142,73,11.26,36.71
97.35,0.205,0.663,1.458,3.142,73,11.26,36.8
97.42,-0.068,0.311,1.457,3.142,73,11.26,36.88
97.48,-0.043,0.228,1.457,3.142,73,11.26,36.94
97.55,0.02,0.269,1.457,3.142,80,11.26,36.95
97.61,0.116,0.269,1.457,3.142,80,11.26,36.89
97.68,-0.043,0.249,1.457,3.141,80,11.26,36.83
97.74,-0.086,0.29,1.457,3.142,80,11.26,36.77
97.81,-0.075,0.228,1.457,3.14,80,11.26,36.68
97.87,-0.084,0.269,1.457,3.14,80,11.26,36.55
97.94,-0.076,0.29,1.457,3.14,80,11.26,36.47
98.0,-0.093,0.29,1.457,3.14,80,11.26,36.39
98.06,-0.113,0.311,1.457,3.14,80,11.26,36.33
98.13,0.212,0.725,1.457,3.14,80,11.26,36.28
98.19,-0.069,0.311,1.457,3.14,80,11.26,36.21
98.26,-0.048,0.228,1.457,3.14,80,11.26,36.19
98.32,0.016,0.269,1.457,3.14,77,11.26,36.16
98.39,0.124,0.249,1.457,3.14,77,11.26,36.13
98.45,-0.028,0.249,1.457,3.137,77,11.26,36.09
98.52,-0.087,0.29,1.454,3.137,77,11.26,36.07
98.58,-0.069,0.269,1.454,3.137,77,11.26,36.03
98.65,-0.077,0.269,1.454,3.137,77,11.26,35.95
98.71,-0.087,0.29,1.454,3.137,77,11.26,35.9
98.77,-0.067,0.249,1.454,3.137,77,11.26,35.88
98.84,-0.107,0.249,1.454,3.137,77,11.26,35.85
98.9,0.011,0.518,1.454,3.137,77,11.26,35.84
98.97,0.111,0.663,1.454,3.137,77,11.26,35.82
99.03,-0.058,0.29,1.454,3.137,77,11.26,35.81
99.1,-0.019,0.29,1.454,3.136,74,11.26,35.81
99.16,0.076,0.228,1.454,3.136,74,11.26,35.8
99.23,0.111,0.29,1.453,3.135,74,11.26,35.81
99.29,-0.064,0.269,1.453,3.135,74,11.26,35.81
99.35,-0.069,0.207,1.452,3.135,74,11.26,35.81
99.42,-0.06,0.249,1.452,3.135,74,11.26,35.76
99.48,-0.072,0.228,1.453,3.135,74,11.26,35.71
99.55,-0.071,0.249,1.452,3.135,74,11.26,35.7
99.61,-0.06,0.228,1.452,3.133,74,11.26,35.69
99.68,-0.092,0.249,1.452,3.133,74,11.26,35.68
99.74,0.212,0.642,1.452,3.132,74,11.26,35.66
99.81,-0.049,0.497,1.452,3.132,74,11.26,35.65
99.87,-0.039,0.269,1.452,3.132,74,11.26,35.66
99.94,0.008,0.29,1.452,3.132,72,11.26,35.65
100.0,0.127,0.269,1.452,3.132,72,11.26,35.65
100.06,0.078,0.269,1.452,3.132,72,11.26,35.66
100.13,-0.06,0.29,1.452,3.132,72,11.26,35.65
100.19,-0.052,0.186,1.449,3.132,72,11.26,35.65
100.26,-0.049,0.269,1.449,3.132,72,11.26,35.58
100.32,-0.06,0.269,1.449,3.13,72,11.26,35.52
100.39,-0.057,0.207,1.449,3.13,72,11.26,35.5
100.45,-0.054,0.249,1.449,3.13,72,11.26,35.51
100.52,-0.079,0.29,1.449,3.13,72,11.26,35.52
100.58,0.231,0.663,1.449,3.13,72,11.26,35.53
100.65,-0.049,0.29,1.449,3.13,72,11.26,35.55
100.71,-0.031,0.249,1.449,3.13,72,11.26,35.6
100.77,0.023,0.249,1.449,3.13,72,11.26,35.66
100.84,0.143,0.249,1.449,3.13,72,11.26,35.72
100.9,0.051,0.228,1.449,3.13,72,11.26,35.81
100.97,-0.061,0.29,1.449,3.13,72,11.26,35.88
101.03,-0.049,0.249,1.447,3.127,72,11.26,35.98
101.1,-0.052,0.269,1.448,3.127,72,11.26,36.02
101.16,-0.059,0.29,1.447,3.127,72,11.26,36.07
101.23,-0.065,0.29,1.447,3.127,72,11.26,36.16
101.29,-0.078,0.29,1.447,3.127,72,11.26,36.24
101.35,0.228,0.787,1.447,3.127,72,11.26,36.34
101.42,-0.049,0.269,1.447,3.127,72,11.26,36.44
101.48,-0.016,0.228,1.445,3.127,72,11.26,36.61
101.55,0.04,0.29,1.447,3.127,77,11.26,36.61
101.61,0.155,0.269,1.447,3.127,77,11.26,36.69
101.68,0.053,0.249,1.447,3.125,77,11.26,36.77
101.74,-0.044,0.269,1.447,3.125,77,11.26,36.85
101.81,-0.03,0.269,1.447,3.125,77,11.26,36.91
101.87,-0.036,0.249,1.447,3.125,77,11.26,36.95
101.94,-0.024,0.249,1.447,3.125,77,11.26,37.01
102.0,-0.063,0.249,1.445,3.125,77,11.26,37.06
102.06,0.039,0.477,1.444,3.125,77,11.26,37.08
102.13,0.159,0.559,1.444,3.125,77,11.26,37.05
102.19,-0.02,0.228,1.444,3.123,77,11.26,36.99
102.26,0.017,0.269,1.444,3.125,77,11.26,36.92
102.32,0.112,0.249,1.444,3.122,77,11.26,36.86
102.39,0.134,0.269,1.444,3.122,77,11.26,36.78
102.45,-0.034,0.269,1.444,3.122,77,11.26,36.69
102.52,-0.031,0.228,1.444,3.122,80,11.26,36.61
102.58,-0.026,0.249,1.444,3.122,80,11.26,36.5
102.65,-0.035,0.249,1.444,3.122,80,11.26,36.4
102.71,-0.018,0.29,1.444,3.122,80,11.26,36.32
102.77,-0.053,0.269,1.444,3.122,80,11.26,36.23
102.84,0.028,0.414,1.444,3.122,80,11.26,36.16
102.9,0.197,0.58,1.444,3.121,80,11.26,36.12
102.97,-0.011,0.29,1.444,3.122,80,11.26,36.05
103.03,0.024,0.207,1.443,3.122,80,11.26,36.01
103.1,0.122,0.249,1.442,3.122,80,11.26,35.97
103.16,0.165,0.269,1.442,3.12,80,11.26,35.93
103.23,-0.014,0.331,1.442,3.12,80,11.26,35.89
103.29,-0.021,0.269,1.442,3.12,77,11.26,35.86
103.35,-0.016,0.269,1.442,3.12,77,11.26,35.8
103.42,-0.028,0.269,1.442,3.12,77,11.26,35.74
103.48,-0.023,0.311,1.442,3.12,77,11.26,35.74
103.55,-0.037,0.269,1.442,3.12,77,11.26,35.74
103.61,-0.059,0.311,1.442,3.118,77,11.26,35.72
103.68,-0.044443661971830986,0.767,1.442,3.12,77,11.26,35.74
103.74,-0.02,0.311,1.442,3.118,77,11.26,35.72
103.81,0.0,0.29,1.442,3.117,77,11.26,35.7
103.87,0.066,0.269,1.442,3.117,77,11.26,35.74
103.94,0.182,0.228,1.442,3.117,77,11.26,35.76
104.0,0.03,0.249,1.442,3.117,77,11.26,35.74
104.06,-0.036,0.311,1.442,3.117,75,11.26,35.72
104.13,-0.025,0.269,1.44,3.117,75,11.26,35.72
104.19,-0.029,0.249,1.439,3.117,75,11.26,35.64
104.26,-0.04,0.207,1.439,3.117,75,11.26,35.59
104.32,-0.027,0.269,1.439,3.117,75,11.26,35.58
104.39,-0.058,0.249,1.439,3.117,75,11.26,35.58
104.45,-0.036,0.373,1.439,3.117,75,11.26,35.58
104.52,0.229,0.684,1.439,3.117,75,11.26,35.58
104.58,-0.033,0.29,1.439,3.117,75,11.26,35.59
104.65,-0.005,0.228,1.439,3.117,75,11.26,35.63
104.71,0.08,0.249,1.439,3.117,72,11.26,35.66
104.77,0.155,0.29,1.439,3.117,72,11.26,35.71
104.84,-0.034,0.29,1.439,3.117,72,11.26,35.79
104.9,-0.057,0.29,1.439,3.116,72,11.26,35.86
104.97,-0.049,0.249,1.439,3.115,72,11.26,35.93
105.03,-0.059,0.269,1.438,3.115,72,11.26,35.95
105.1,-0.051,0.269,1.438,3.115,72,11.26,36.02
105.16,-0.082,0.249,1.437,3.115,72,11.26,36.11
105.23,-0.096,0.373,1.437,3.115,72,11.26,36.22
105.29,0.217,0.787,1.437,3.115,72,11.26,36.34
105.35,-0.053,0.269,1.437,3.115,72,11.26,36.41
105.42,-0.026,0.228,1.437,3.115,72,11.26,36.51
105.48,0.045,0.249,1.437,3.113,76,11.26,36.6
105.55,0.134,0.29,1.437,3.112,76,11.26,36.69
105.61,-0.042,0.207,1.437,3.112,76,11.26,36.79
105.68,-0.077,0.269,1.437,3.115,76,11.26,36.89
105.74,-0.062,0.29,1.437,3.113,76,11.26,36.95
105.81,-0.067,0.29,1.437,3.112,76,11.26,37.0
105.87,-0.074,0.269,1.437,3.112,76,11.26,37.06
105.94,-0.105,0.269,1.435,3.112,76,11.26,37.09
106.0,0.204,0.767,1.434,3.112,76,11.26,37.06
106.06,-0.081,0.414,1.434,3.112,76,11.26,36.99
106.13,-0.056,0.228,1.434,3.112,76,11.26,36.89
106.19,-0.006,0.249,1.434,3.112,81,11.26,36.81
106.26,0.108,0.269,1.434,3.112,81,11.26,36.74
106.32,0.005,0.311,1.434,3.112,81,11.26,36.67
106.39,-0.099,0.249,1.434,3.11,81,11.26,36.6
106.45,-0.083,0.269,1.434,3.111,81,11.26,36.51
106.52,-0.082,0.249,1.434,3.111,81,11.26,36.39
106.58,-0.091,0.269,1.434,3.11,81,11.26,36.29
106.65,-0.078,0.269,1.434,3.11,81,11.26,36.23
106.71,-0.099,0.269,1.434,3.11,81,11.26,36.15
106.77,-0.108,0.394,1.434,3.11,81,11.26,36.12
106.84,0.216,0.704,1.434,3.11,81,11.26,36.07
106.9,-0.066,0.269,1.434,3.11,81,11.26,36.03
106.97,-0.04,0.269,1.434,3.11,81,11.26,35.97
107.03,0.04,0.249,1.432,3.11,73,11.26,35.89
107.1,0.145,0.249,1.433,3.11,73,11.26,35.82
107.16,-0.032,0.269,1.433,3.11,73,11.26,35.76
107.23,-0.072,0.29,1.432,3.11,73,11.26,35.74
107.29,-0.059,0.269,1.432,3.11,73,11.26,35.69
107.35,-0.065,0.269,1.432,3.112,73,11.26,35.59
107.42,-0.073,0.269,1.432,3.112,73,11.26,35.55
107.48,-0.057,0.622,1.432,3.112,73,11.26,35.52
107.55,-0.088,0.414,1.432,3.115,73,11.26,35.49
107.61,-0.075,0.331,1.432,3.115,73,11.26,35.49
107.68,0.219,0.849,1.432,3.116,73,11.26,35.47
107.74,-0.048,0.29,1.432,3.117,73,11.26,35.46
107.81,-0.02,0.249,1.432,3.12,73,11.26,35.44
107.87,0.067,0.331,1.432,3.123,72,11.26,35.43
107.94,0.155,0.311,1.432,3.126,72,11.26,35.43
108.0,-0.031,0.269,1.432,3.128,72,11.26,35.45
108.06,-0.058,0.249,1.43,3.131,72,11.26,35.48
108.13,-0.047,0.29,1.43,3.133,72,11.26,35.48
108.19,-0.057,0.269,1.429,3.137,72,11.26,35.41
108.26,-0.063,0.249,1.429,3.14,72,11.26,35.36
108.32,-0.046,0.331,1.429,3.143,72,11.26,35.34
108.39,-0.07,0.269,1.429,3.146,72,11.26,35.35
108.45,-0.082,0.352,1.429,3.151,72,11.26,35.37
108.52,0.235,0.746,1.429,3.153,72,11.26,35.4
108.58,-0.045,0.29,1.429,3.155,72,11.26,35.45
108.65,-0.021,0.249,1.429,3.156,72,11.26,35.54
108.71,0.051,0.29,1.43,3.163,70,11.26,35.64
108.77,0.156,0.311,1.432,3.174,70,11.26,35.78
108.84,-0.021,0.269,1.432,3.183,70,11.26,35.89
108.9,-0.068,0.29,1.432,3.186,70,11.24,36.02
108.97,-0.054,0.269,1.433,3.188,70,11.26,36.12
109.03,-0.061,0.269,1.434,3.192,70,11.26,36.14
109.1,-0.049,0.249,1.434,3.195,70,11.26,36.18
109.16,-0.093,0.249,1.434,3.208,70,11.26,36.25
109.23,-0.054,0.518,1.434,3.213,70,11.26,36.35
109.29,0.173,0.704,1.434,3.215,70,11.26,36.46
109.35,-0.053,0.269,1.434,3.22,70,11.24,36.56
109.42,-0.016,0.29,1.437,3.224,70,11.26,36.62
109.48,0.075,0.228,1.437,3.229,79,11.26,36.7
109.55,0.122,0.249,1.438,3.236,79,11.26,36.78
109.61,-0.059,0.269,1.439,3.246,79,11.26,36.85
109.68,-0.062,0.29,1.439,3.255,79,11.26,36.93
109.74,-0.057,0.207,1.44,3.258,79,11.26,36.96
109.81,-0.063,0.249,1.442,3.26,79,11.26,36.97
109.87,-0.062,0.249,1.442,3.262,79,11.24,37.01
109.94,-0.092,0.249,1.444,3.262,79,11.26,36.97
110.0,0.227,0.622,1.444,3.262,79,11.26,36.9
110.06,-0.064,0.373,1.444,3.26,79,11.26,36.8
110.13,-0.037,0.269,1.444,3.262,79,11.26,36.74
110.19,0.017,0.269,1.445,3.262,80,11.26,36.72
110.26,0.133,0.228,1.447,3.262,80,11.24,36.66
110.32,0.034,0.249,1.447,3.262,80,11.24,36.58
110.39,-0.071,0.373,1.447,3.264,80,11.26,36.5
110.45,-0.055,0.29,1.448,3.264,80,11.26,36.42
110.52,-0.056,0.249,1.449,3.268,80,11.26,36.32
110.58,-0.066,0.29,1.449,3.274,80,11.26,36.25
110.65,-0.047,0.249,1.449,3.274,80,11.24,36.2
110.71,-0.087,0.311,1.449,3.274,80,11.26,36.15
110.77,0.132,0.642,1.449,3.274,80,11.26,36.11
110.84,0.043,0.601,1.449,3.274,80,11.26,36.04
110.9,-0.027,0.269,1.449,3.274,80,11.24,35.97
110.97,0.025,0.331,1.449,3.274,75,11.24,35.92
111.03,0.151,0.269,1.449,3.275,75,11.24,35.9
111.1,0.16,0.311,1.452,3.276,75,11.26,35.86
111.16,0.001,0.249,1.449,3.276,75,11.24,35.83
111.23,0.009,0.29,1.45,3.276,75,11.26,35.82
111.29,0.022,0.29,1.452,3.274,75,11.26,35.85
111.35,0.014,0.311,1.452,3.274,75,11.24,35.94
111.42,0.038,0.331,1.452,3.274,75,11.26,36.01
111.48,0.005,0.228,1.452,3.272,75,11.26,36.03
111.55,0.22,0.622,1.453,3.272,75,11.26,36.06
111.61,0.169,0.539,1.454,3.269,75,11.24,36.1
111.68,0.085,0.269,1.454,3.269,75,11.26,36.11
111.74,0.135,0.269,1.454,3.268,75,11.24,36.22
111.81,0.12877777777777777,0.29,1.454,3.267,75,11.26,36.34
111.87,0.11722222222222223,0.269,1.454,3.267,75,11.26,36.54
111.94,0.111,0.311,1.454,3.267,75,11.26,36.81
112.0,0.126,0.269,1.454,3.267,75,11.24,36.97
112.06,0.144,0.269,1.454,3.264,75,11.26,37.01
112.13,0.146,0.269,1.454,3.264,75,11.24,37.09
112.19,0.17,0.249,1.455,3.264,75,11.26,37.17
112.26,0.13,0.249,1.457,3.264,75,11.24,37.12
112.32,0.16150000000000003,0.58,1.457,3.262,75,11.24,37.04
112.39,0.193,0.539,1.458,3.262,75,11.26,36.94
112.45,0.137,0.228,1.459,3.262,75,11.24,36.82
112.52,0.164,0.249,1.459,3.262,75,11.26,36.64
112.58,0.2010639534883721,0.249,1.46,3.26,75,11.26,36.49
112.65,0.224,0.207,1.462,3.259,75,11.24,36.43
112.71,0.052,0.228,1.462,3.26,75,11.24,36.5
112.77,0.044,0.269,1.462,3.262,75,11.24,36.52
112.84,0.046,0.269,1.462,3.26,75,11.24,36.51
112.9,0.054,0.29,1.462,3.259,75,11.26,36.42
112.97,0.016,0.29,1.462,3.26,75,11.24,36.49
113.03,-0.016,0.352,1.462,3.262,75,11.24,36.75
113.1,0.256,0.746,1.462,3.262,75,11.26,37.39
113.16,-0.031,0.29,1.462,3.262,75,11.26,37.95
113.23,-0.026,0.249,1.462,3.262,75,11.24,37.99
113.29,0.029,0.269,1.463,3.262,75,11.24,37.66
113.35,0.082,0.269,1.464,3.263,75,11.24,37.65
113.42,-0.114,0.249,1.464,3.264,75,11.24,38.14
113.48,-0.144,0.228,1.464,3.264,75,11.24,38.53
113.55,-0.138,0.269,1.464,3.264,75,11.24,38.52
113.61,-0.135,0.331,1.463,3.264,75,11.24,38.32
113.68,-0.188,0.352,1.464,3.264,75,11.24,38.21
113.74,0.073,0.622,1.464,3.264,75,11.24,38.19
113.81,-0.112,0.642,1.464,3.264,75,11.24,38.28
113.87,-0.117,0.394,1.464,3.267,75,11.24,38.47
113.94,-0.055,0.518,1.464,3.267,75,11.24,38.64
114.0,0.07,0.559,1.464,3.267,75,11.24,38.84
114.06,0.056,0.663,1.464,3.267,75,11.24,39.16
114.13,-0.023,0.559,1.464,3.267,75,11.24,39.52
114.19,0.045,0.704,1.464,3.267,75,11.24,39.88
114.26,0.113,0.891,1.464,3.269,75,11.24,40.33
114.32,0.162,0.601,1.464,3.269,75,11.24,41.11
114.39,0.174,0.725,1.465,3.269,75,11.24,41.99
114.45,0.1834457405743585,1.077,1.465,3.269,75,11.24,41.96387096774194
114.52,0.1924511968389115,0.953,1.467,3.27,75,11.24,41.93774193548387
114.58,0.2009943303619728,0.663,1.467,3.269,75,11.24,41.91161290322581
114.65,0.20905310271185643,0.891,1.467,3.269,75,11.24,41.88548387096775
114.71,0.21660547545687606,1.015,1.467,3.269,75,11.24,41.85935483870968
114.77,0.2236294101653456,0.974,1.467,3.272,75,11.24,41.833225806451615
114.84,0.23010286840557892,0.932,1.467,3.273,75,11.24,41.80709677419355
114.9,0.23600381174588986,0.787,1.467,3.274,75,11.24,41.780967741935484
114.97,0.24131020175459228,0.746,1.467,3.274,75,11.24,41.75483870967742
115.03,0.246,0.746,1.467,3.274,75,11.24,41.72870967741935
115.1,0.25059353905496623,0.725,1.467,3.274,75,11.24,41.70258064516129
115.16,0.253,0.622,1.467,3.274,75,11.24,41.67645161290323
115.23,0.246136,0.642,1.467,3.274,75,11.24,41.65032258064516
115.29,0.22976800000000003,0.725,1.467,3.276,75,11.24,41.6241935483871
115.35,0.210232,0.518,1.469,3.276,75,11.24,41.598064516129035
115.42,0.193864,0.601,1.469,3.279,75,11.24,41.571935483870966
115.48,0.187,0.58,1.469,3.28,75,11.24,41.545806451612904
115.55,0.216,0.559,1.469,3.282,75,11.24,41.51967741935484
115.61,0.232,0.622,1.469,3.286,75,11.24,41.49354838709677
115.68,0.132,0.435,1.469,3.29,75,11.24,41.46741935483871
115.74,0.11647424511545292,0.994,1.469,3.295,75,11.24,41.44129032258065
115.81,0.10773712255772645,1.14,1.469,3.297,87,11.24,41.41516129032258
115.87,0.105,1.264,1.469,3.305,87,11.24,41.38903225806452
115.94,0.131,1.4535671378091872,1.469,3.31,87,11.24,41.36290322580645
116.0,0.214,1.575,1.472,3.316,87,11.24,41.336774193548386
116.06,0.177,1.326,1.473,3.322,87,11.24,41.310645161290324
116.13,0.03,1.471,1.474,3.328,87,11.24,41.284516129032255
116.19,0.031,1.077,1.475,3.338,87,11.24,41.25838709677419
116.26,0.024,1.533,1.477,3.352,87,11.24,41.23225806451613
116.32,0.001,1.14,1.479,3.363,87,11.24,41.20612903225806
116.39,0.004,1.285,1.482,3.374,87,11.24,41.18
116.45,-0.002,0.87,1.482,3.392,87,11.24,40.47
116.52,-0.053,0.932,1.484,3.402,87,11.24,40.18
116.58,-0.04737323943661972,1.098,1.487,3.408,87,11.24,40.08
116.65,-0.036,0.891,1.488,3.415,87,11.24,40.12
116.71,-0.02,0.932,1.489,3.425,87,11.24,40.05
116.77,0.033,1.305,1.492,3.438,87,11.24,39.88
116.84,0.129,0.642,1.492,3.444,87,11.24,39.71
116.9,-0.006,0.932,1.493,3.449,87,11.24,39.54
116.97,-0.082,0.663,1.494,3.454,87,11.24,39.36
117.03,-0.072,0.953,1.497,3.461,87,11.24,39.17
117.1,-0.081,0.767,1.498,3.466,87,11.24,38.97
117.16,-0.084,0.663,1.499,3.474,87,11.24,38.86
117.23,-0.135,1.077,1.502,3.485,87,11.24,38.81
117.29,0.192,0.994,1.503,3.491,87,11.24,38.79
117.35,-0.108,0.891,1.504,3.494,87,11.24,38.74
117.42,-0.087,0.953,1.507,3.498,87,11.24,38.68
117.48,-0.029,0.601,1.508,3.501,83,11.24,38.67
117.55,0.082,1.326,1.509,3.51,83,11.24,38.61
117.61,-0.05,0.684,1.511,3.516,83,11.24,38.55
117.68,-0.135,0.725,1.512,3.519,83,11.24,38.49
117.74,-0.124,0.891,1.514,3.52,83,11.24,38.4
117.81,-0.135,0.891,1.516,3.524,83,11.24,38.33
117.87,-0.116,0.663,1.516,3.525,83,11.24,38.27
117.94,-0.16,0.912,1.519,3.529,83,11.24,38.22
118.0,-0.181,0.974,1.519,3.534,83,11.24,38.19
118.06,0.146,0.953,1.52,3.539,83,11.24,38.15
118.13,-0.153,0.58,1.521,3.547,83,11.24,38.08
118.19,-0.124,0.787,1.521,3.556,83,11.24,38.07
118.26,-0.042,0.704,1.522,3.571,80,11.24,38.05
118.32,0.039,0.974,1.524,3.587,80,11.24,38.03
118.39,-0.14,0.601,1.526,3.608,80,11.24,37.99
118.45,-0.16,0.663,1.527,3.627,80,11.24,37.92
118.52,-0.153,0.642,1.529,3.647,80,11.24,37.86
118.58,-0.167,0.725,1.531,3.689,80,11.24,37.81
118.65,-0.154,0.746,1.532,3.722,80,11.24,37.79
118.71,-0.174,0.87,1.535,3.741,80,11.24,37.74
118.77,-0.213,1.181,1.537,3.764,80,11.24,37.69
118.84,0.13,1.077,1.541,3.818,80,11.24,37.65
118.9,-0.172,0.994,1.542,3.854,80,11.24,37.65
118.97,-0.141,0.849,1.547,3.877,80,11.24,37.66
119.03,-0.075,0.808,1.549,3.905,76,11.24,37.61
119.1,0.029,1.222,1.551,3.947,76,11.24,37.54
119.16,-0.142,0.663,1.555,3.996,76,11.24,37.46
119.23,-0.176,0.767,1.557,4.056,76,11.24,37.49
119.29,-0.165,0.994,1.56,4.109,76,11.23,37.49
119.35,-0.177,0.849,1.564,4.14,76,11.23,37.43
119.42,-0.178,0.725,1.567,4.187,76,11.23,37.4
119.48,-0.156,0.601,1.575,4.236,76,11.23,37.38
119.55,-0.203,0.663,1.577,4.296,76,11.24,37.38
119.61,0.12,1.077,1.582,4.348,76,11.26,37.37
119.68,-0.168,0.642,1.59,4.382,76,11.24,37.32
119.74,-0.141,0.663,1.601,4.406,76,11.24,37.32
119.81,-0.08,0.787,1.624,4.425,75,11.24,37.31
119.87,0.029,0.622,1.64,4.452,75,11.24,37.42
119.94,-0.096,0.477,1.65,4.476,75,11.24,37.37
120.0,-0.183,0.642,1.658,4.495,75,11.24,37.31
120.06,-0.169,0.767,1.668,4.521,75,11.24,37.17
120.13,-0.181,0.58,1.683,4.559,75,11.24,37.14
120.19,-0.198,0.704,1.7,4.599,75,11.24,37.3
120.26,-0.167,0.518,1.716,4.625,75,11.24,37.36
120.32,-0.227,0.414,1.731,4.676,75,11.24,37.3
120.39,0.001,0.622,1.767,4.702,75,11.24,37.25
120.45,-0.118,0.518,1.793,4.718,75,11.24,37.25
120.52,-0.179,0.622,1.804,4.738,75,11.24,37.25
120.58,-0.133,0.435,1.814,4.763,75,11.24,37.25
120.65,-0.03,0.559,1.824,4.795,75,11.24,37.24
120.71,-0.036,0.477,1.842,4.826,75,11.24,37.23
120.77,-0.196,0.394,1.852,4.864,75,11.24,37.22
120.84,-0.188,0.414,1.859,4.901,75,11.24,37.17
120.9,-0.185,0.601,1.865,4.932,75,11.24,37.06
120.97,-0.198,0.58,1.873,4.961,75,11.24,36.99
121.03,-0.173,0.373,1.879,4.992,75,11.24,36.99
121.1,-0.195,0.414,1.888,5.005,75,11.24,37.02
121.16,-0.219,0.642,1.906,5.019,75,11.24,37.03
121.23,0.109,0.932,1.937,5.043,75,11.24,37.0
121.29,-0.167,0.456,1.957,5.07,75,11.24,36.97
121.35,-0.133,0.394,1.975,5.082,75,11.24,36.97
121.42,-0.05,0.352,1.988,5.081,74,11.24,37.01
121.48,0.046,0.456,2.002,5.093,74,11.24,37.07
121.55,-0.127,0.394,2.041,5.091,74,11.24,37.07
121.61,-0.154,0.414,2.074,5.094,74,11.24,37.04
121.68,-0.145,0.435,2.094,5.096,74,11.24,37.01
121.74,-0.151,0.497,2.119,5.1,74,11.24,36.98
121.81,-0.139,0.477,2.17,5.1,74,11.24,36.99
121.87,-0.134,0.601,2.215,5.094,74,11.24,37.02
121.94,-0.176,0.518,2.26,5.094,74,11.24,37.03
122.0,0.139,0.808,2.292,5.098,74,11.24,37.06
122.06,-0.131,0.435,2.305,5.098,74,11.24,37.04
122.13,-0.101,0.518,2.316,5.088,74,11.24,37.04
122.19,-0.034,0.435,2.337,5.077,76,11.24,37.04
122.26,0.081,0.414,2.377,5.068,76,11.24,37.06
122.32,-0.091,0.456,2.402,5.062,76,11.24,37.09
122.39,-0.125,0.477,2.406,5.057,76,11.24,37.09
122.45,-0.114,0.539,2.41,5.05,76,11.24,37.09
122.52,-0.125,0.477,2.416,5.041,76,11.24,37.04
122.58,-0.13,0.497,2.421,5.033,76,11.24,37.02
122.65,-0.096,0.477,2.432,5.021,76,11.24,37.04
122.71,-0.155,0.352,2.434,5.022,76,11.24,37.05
122.77,0.136,0.622,2.443,5.015,76,11.24,37.07
122.84,-0.121,0.601,2.456,5.013,76,11.24,37.06
122.9,-0.102,0.456,2.468,5.009,76,11.24,37.04
122.97,-0.048,0.414,2.478,5.009,75,11.24,37.04
123.03,0.064,0.601,2.484,5.007,75,11.24,37.04
123.1,0.015,0.497,2.492,5.004,75,11.24,37.06
123.16,-0.118,0.456,2.499,5.0,75,11.24,37.07
123.23,-0.112,0.497,2.507,4.999,75,11.24,37.09
123.29,-0.114,0.414,2.512,4.998,75,11.24,37.06
123.35,-0.125,0.456,2.516,5.0,75,11.24,37.03
123.42,-0.09,0.311,2.519,5.0,75,11.24,37.03
123.48,-0.149,0.559,2.527,4.997,75,11.24,37.02
123.55,0.041,0.601,2.533,4.993,75,11.24,37.06
123.61,-0.024,0.746,2.56,4.99,75,11.24,37.08
123.68,-0.105,0.435,2.572,4.985,75,11.24,37.09
123.74,-0.056,0.477,2.581,4.983,75,11.24,37.09
123.81,0.049,0.311,2.583,4.98,75,11.24,37.08
123.87,0.054,0.352,2.584,4.977,75,11.24,37.08
123.94,-0.107,0.456,2.586,4.973,75,11.24,37.09
124.0,-0.105,0.352,2.591,4.969,75,11.24,37.09
124.06,-0.105,0.477,2.594,4.965,75,11.24,37.06
124.13,-0.106,0.373,2.609,4.96,75,11.24,37.03
124.19,-0.096,0.29,2.627,4.955,75,11.24,37.03
124.26,-0.146,0.311,2.635,4.951,75,11.24,37.03
124.32,0.15,0.87,2.639,4.947,75,11.24,37.04
124.39,-0.113,0.352,2.644,4.945,75,11.24,37.07
124.45,-0.087,0.249,2.649,4.942,75,11.24,37.06
124.52,-0.022,0.477,2.654,4.94,80,11.24,37.07
124.58,0.093,0.311,2.659,4.941,80,11.24,37.07
124.65,-0.02,0.331,2.672,4.943,80,11.24,37.08
124.71,-0.107,0.29,2.681,4.948,80,11.24,37.08
124.77,-0.094,0.456,2.687,4.951,80,11.24,37.07
124.84,-0.104,0.269,2.694,4.955,80,11.24,37.04
124.9,-0.068,0.373,2.698,4.959,80,11.24,37.03
124.97,-0.134,0.29,2.7,4.963,80,11.24,37.05
125.03,0.015,0.684,2.701,4.971,80,11.24,37.05
125.1,0.025,0.601,2.702,4.984,80,11.24,37.07
125.16,-0.09,0.331,2.705,4.994,80,11.24,37.09
125.23,-0.039,0.373,2.708,5.001,80,11.24,37.09
125.29,0.067,0.435,2.713,5.01,80,11.24,37.09
125.35,0.072,0.331,2.718,5.018,80,11.24,37.09
125.42,-0.081,0.456,2.722,5.025,80,11.24,37.1
125.48,-0.077,0.331,2.726,5.033,81,11.24,37.11
125.55,-0.078,0.352,2.731,5.04,81,11.24,37.08
125.61,-0.058,0.394,2.736,5.047,81,11.24,37.05
125.68,-0.092,0.394,2.738,5.052,81,11.23,37.07
125.74,-0.126,0.29,2.743,5.062,81,11.24,37.08
125.81,0.187,0.746,2.745,5.072,81,11.24,37.1
125.87,-0.078,0.269,2.754,5.083,81,11.24,37.1
125.94,-0.046,0.269,2.761,5.092,81,11.24,37.09
126.0,0.024,0.249,2.775,5.095,81,11.24,37.1
126.06,0.109,0.186,2.78,5.101,81,11.24,37.11
126.13,-0.069,0.228,2.785,5.116,81,11.24,37.09
126.19,-0.132,0.29,2.789,5.119,81,11.24,37.2
126.26,-0.138,0.311,2.793,5.119,81,11.24,37.33
126.32,-0.125,0.352,2.797,5.117,81,11.24,37.28
126.39,-0.162,0.228,2.8,5.119,81,11.24,37.18
126.45,-0.21,0.29,2.806,5.117,81,11.24,37.28
126.52,0.087,0.767,2.817,5.118,81,11.24,37.1
126.58,-0.178,0.269,2.815,5.119,81,11.24,37.09
126.65,-0.152,0.249,2.819,5.122,81,11.24,36.86
126.71,-0.072,0.207,2.822,5.126,83,11.24,36.75
126.77,0.03,0.228,2.825,5.129,83,11.24,36.86
126.84,-0.126,0.207,2.828,5.133,83,11.24,36.96
126.9,-0.172,0.228,2.833,5.136,83,11.24,36.92
126.97,-0.166,0.269,2.837,5.138,83,11.24,36.77
127.03,-0.146,0.228,2.842,5.143,83,11.24,36.65
127.1,-0.176,0.228,2.85,5.152,83,11.24,36.76
127.16,-0.219,0.249,2.857,5.155,83,11.24,36.81
127.23,0.081,0.767,2.861,5.164,83,11.24,36.74
127.29,-0.175,0.249,2.864,5.166,83,11.24,36.63
127.35,-0.143,0.228,2.875,5.166,83,11.24,36.6
127.42,-0.064,0.207,2.881,5.168,84,11.24,36.71
127.48,0.038,0.228,2.895,5.167,84,11.24,36.77
127.55,-0.11,0.228,2.914,5.163,84,11.24,36.71
127.61,-0.154,0.228,2.915,5.163,84,11.24,36.65
127.68,-0.147,0.228,2.917,5.166,84,11.24,36.63
127.74,-0.135,0.269,2.922,5.169,84,11.24,36.64
127.81,-0.144,0.269,2.924,5.171,84,11.24,36.65
127.87,-0.192,0.269,2.928,5.167,84,11.24,36.63
127.94,0.103,0.684,2.929,5.162,84,11.24,36.63
128.0,-0.157,0.269,2.932,5.157,84,11.24,36.69
128.06,-0.124,0.249,2.933,5.153,84,11.23,36.78
128.13,-0.058,0.269,2.936,5.149,83,11.24,36.83
128.19,0.056,0.249,2.938,5.147,83,11.24,36.89
128.26,-0.053,0.29,2.941,5.143,83,11.24,36.96
128.32,-0.123,0.249,2.941,5.139,83,11.24,37.05
128.39,-0.109,0.29,2.943,5.137,83,11.24,37.11
128.45,-0.086,0.228,2.946,5.134,83,11.24,37.15
128.52,-0.112,0.249,2.947,5.132,83,11.24,37.22
128.58,-0.153,0.269,2.951,5.132,83,11.24,37.29
128.65,0.143,0.829,2.954,5.133,83,11.24,37.38
128.71,-0.11,0.352,2.958,5.134,83,11.24,37.44
128.77,-0.075,0.207,2.959,5.137,83,11.24,37.48
128.84,-0.001,0.228,2.964,5.138,83,11.24,37.48
128.9,0.094,0.29,2.968,5.137,83,11.24,37.48
128.97,-0.051,0.29,2.972,5.136,83,11.24,37.46
129.03,-0.091,0.269,2.973,5.132,85,11.24,37.45
129.1,-0.084,0.311,2.976,5.129,85,11.24,37.38
129.16,-0.066,1.036,2.976,5.127,85,11.24,37.31
129.23,-0.099,1.554,2.978,5.125,85,11.24,37.25
129.29,-0.141,1.4736368464392446,2.978,5.125,85,11.24,37.22
129.35,0.175,1.3057181373229336,2.979,5.127,85,11.24,37.23
129.42,-0.098,1.16,2.981,5.126,85,11.24,37.26
129.48,0.0,1.077,2.983,5.126,85,11.24,37.28
129.55,0.041,1.057,2.987,5.124,85,11.24,37.46
129.61,0.11,0.725,2.989,5.124,85,11.24,37.74
129.68,-0.044,0.8789214092140921,2.994,5.122,85,11.24,37.81
129.74,-0.078,1.1801761517615177,3.0,5.117,85,11.24,37.84
129.81,-0.065,1.388,3.014,5.114,85,11.24,37.73
129.87,-0.056,1.4602134146341466,3.014,5.114,85,11.24,37.72
129.94,-0.075,1.492,3.019,5.114,85,11.24,37.77
130.0,-0.116,1.3737777777777778,3.024,5.111,85,11.24,37.94
130.06,0.181,1.1542222222222223,3.028,5.107,85,11.24,38.13
130.13,-0.094,1.036,3.031,5.102,85,11.24,38.24
130.19,-0.068,1.0889625623960066,3.036,5.097,85,11.24,38.3
130.26,0.0,1.202,3.041,5.092,83,11.24,38.28
130.32,0.102,1.4495374376039933,3.046,5.086,83,11.24,38.24
130.39,-0.03,1.637,3.05,5.081,83,11.23,38.17
130.45,-0.092,1.347,3.051,5.077,83,11.24,38.14
130.52,-0.072,1.492,3.053,5.072,83,11.23,38.09
130.58,-0.079,1.3259999999999998,3.054,5.07,83,11.24,38.02
130.65,-0.061,1.16,3.055,5.067,83,11.24,37.98
130.71,-0.123,1.285,3.055,5.065,83,11.24,38.03
130.77,0.17,1.16,3.058,5.065,83,11.24,38.08
130.84,-0.089,1.264,3.059,5.067,83,11.24,38.08
130.9,-0.065,1.16,3.061,5.072,83,11.24,38.03
130.97,-0.009,1.43,3.064,5.077,83,11.24,37.97
131.03,0.102,1.243,3.065,5.082,83,11.23,37.92
131.1,0.034,1.262925925925926,3.068,5.091,83,11.24,37.86
131.16,-0.076,1.3127407407407408,3.071,5.098,82,11.24,37.82
131.23,-0.062,1.3775,3.074,5.111,82,11.24,37.77
131.29,-0.066,1.4422592592592591,3.076,5.122,82,11.24,37.68
131.35,-0.032,1.492074074074074,3.08,5.137,82,11.24,37.64
131.42,-0.086,1.512,3.086,5.15,82,11.24,37.65
131.48,-0.011,1.367,3.088,5.164,82,11.24,37.62
131.55,0.145,1.1261096116359273,3.09,5.181,82,11.24,37.54
131.61,-0.032,0.8542214724846304,3.091,5.197,82,11.24,37.44
131.68,0.027,0.725,3.094,5.213,82,11.24,37.37
131.74,0.141,1.533,3.096,5.226,82,11.24,37.39
131.81,0.171,1.5321233286713285,3.098,5.244,82,11.24,37.51
131.87,0.018,1.5290562797202796,3.1,5.261,82,11.24,37.68
131.94,0.025,1.5231433006993005,3.101,5.279,82,11.24,37.77
132.0,0.026,1.513728839160839,3.103,5.295,82,11.24,37.83
132.06,0.058,1.5001573426573425,3.106,5.313,82,11.24,37.75
132.13,-0.003,1.4817732587412586,3.107,5.331,82,11.24,37.74
132.19,-0.005,1.457921034965035,3.108,5.347,82,11.24,37.84
132.26,0.00025433526011560577,1.427945118881119,3.112,5.368,81,11.24,37.75
132.32,0.013,1.391189958041958,3.116,5.387,81,11.24,37.6
132.39,0.045,1.347,3.124,5.404,81,11.24,37.56
132.45,0.134,0.829,3.133,5.427,81,11.24,37.7
132.52,0.186,1.119,3.139,5.454,81,11.24,37.79
132.58,0.012,1.595,3.147,5.486,81,11.24,37.7
132.65,-0.003,1.036,3.157,5.516,81,11.24,37.67
132.71,-0.002,1.119,3.166,5.541,81,11.24,37.65
132.77,-0.007,1.0775000000000001,3.174,5.561,81,11.24,37.6
132.84,0.009,1.036,3.182,5.578,81,11.24,37.58
132.9,-0.051,1.471,3.19,5.603,81,11.24,37.49
132.97,0.22,1.16,3.198,5.634,81,11.24,37.37
133.03,-0.008,1.326,3.206,5.665,81,11.24,37.28
133.1,-0.006,1.098,3.219,5.705,81,11.24,37.2
133.16,0.046,1.305,3.229,5.747,81,11.24,37.13
133.23,0.166,1.4321145310690853,3.24,5.776,81,11.24,37.17
133.29,0.114,1.492,3.254,5.801,81,11.24,37.17
133.35,-0.013,1.43,3.266,5.816,81,11.24,37.1
133.42,0.0,1.554,3.276,5.829,81,11.24,37.1
133.48,-0.002,1.243,3.285,5.845,81,11.24,37.11
133.55,-0.014,1.249448,3.292,5.87,81,11.24,37.12
133.61,0.013,1.2648240000000002,3.3,5.884,81,11.24,37.17
133.68,-0.033,1.283176,3.306,5.898,81,11.24,37.23
133.74,-0.041,1.298552,3.312,5.915,81,11.24,37.23
133.81,0.247,1.305,3.317,5.935,81,11.24,37.19
133.87,-0.028,1.098,3.325,5.956,81,11.24,37.07
133.94,0.009,0.331,3.332,5.977,81,11.24,36.96
134.0,0.099,0.29,3.34,5.999,81,11.24,36.97
134.06,0.173,0.228,3.345,6.018,81,11.24,36.95
134.13,-0.006,0.228,3.352,6.037,81,11.24,36.97
134.19,-0.017,0.269,3.361,6.075,81,11.24,36.92
134.26,-0.016,0.269,3.37,6.108,81,11.24,36.89
134.32,-0.03,0.249,3.379,6.149,81,11.24,36.77
134.39,0.003,0.29,3.388,6.192,81,11.24,36.77
134.45,-0.066,0.394,3.397,6.223,81,11.24,36.72
134.52,-0.003,0.642,3.414,6.281,81,11.24,36.65
134.58,0.152,0.601,3.413,6.284,81,11.24,36.64
134.65,-0.044,0.249,3.422,6.323,81,11.24,36.61
134.71,-0.005,0.186,3.433,6.349,81,11.24,36.64
134.77,0.091,0.352,3.449,6.365,81,11.24,36.69
134.84,0.113,0.249,3.474,6.382,81,11.24,36.75
134.9,-0.057,0.249,3.487,6.405,81,11.24,36.85
134.97,-0.058,0.228,3.497,6.412,81,11.24,37.03
135.03,-0.054,0.249,3.505,6.414,81,11.24,37.09
135.1,-0.06,0.228,3.511,6.418,81,11.23,36.98
135.16,-0.032,0.207,3.519,6.428,81,11.23,36.85
135.23,-0.096,0.207,3.526,6.452,81,11.23,36.82
135.29,0.128,0.601,3.535,6.452,81,11.24,36.83
135.35,-0.008,0.539,3.543,6.446,81,11.24,36.87
135.42,-0.05,0.228,3.551,6.435,81,11.23,36.91
135.48,-0.001,0.249,3.561,6.421,79,11.24,36.92
135.55,0.106,0.228,3.568,6.408,79,11.24,36.88
135.61,0.074,0.29,3.576,6.402,79,11.24,36.86
135.68,-0.065,0.269,3.584,6.402,79,11.23,36.87
135.74,-0.054,0.228,3.596,6.414,79,11.24,36.87
135.81,-0.056,0.311,3.603,6.434,79,11.24,36.79
135.87,-0.065,0.269,3.608,6.455,79,11.24,36.69
135.94,-0.028,0.249,3.613,6.479,79,11.24,36.65
136.0,-0.088,0.29,3.616,6.508,79,11.24,36.63
136.06,-0.016,0.435,3.621,6.539,79,11.24,36.62
136.13,0.134,0.622,3.623,6.581,79,11.24,36.58
136.19,-0.056,0.269,3.628,6.631,79,11.24,36.55
136.26,-0.014,0.207,3.633,6.677,79,11.24,36.54
136.32,0.086,0.228,3.645,6.734,75,11.24,36.51
136.39,0.111,0.249,3.654,6.778,75,11.24,36.48
136.45,-0.06,0.228,3.662,6.797,75,11.24,36.43
136.52,-0.063,0.228,3.672,6.823,75,11.24,36.43
136.58,-0.06,0.207,3.686,6.853,75,11.23,36.42
136.65,-0.073,0.249,3.694,6.914,75,11.23,36.37
136.71,-0.037,0.228,3.706,6.967,75,11.23,36.32
136.77,-0.099,0.269,3.716,6.999,75,11.23,36.34
136.84,-0.019,0.477,3.73,7.039,75,11.23,36.35
136.9,0.128,0.684,3.746,7.127,75,11.23,36.35
136.97,-0.06,0.249,3.761,7.202,75,11.24,36.31
137.03,-0.019,0.228,3.772,7.272,75,11.23,36.31
137.1,0.082,0.249,3.783,7.3,77,11.23,36.31
137.16,0.108,0.207,3.795,7.331,77,11.23,36.31
137.23,-0.057,0.249,3.805,7.358,77,11.23,36.31
137.29,-0.058,0.249,3.817,7.378,77,11.23,36.27
137.35,-0.051,0.269,3.828,7.379,77,11.23,36.25
137.42,-0.054,0.249,3.842,7.374,77,11.23,36.22
137.48,-0.027,0.269,3.854,7.368,77,11.23,36.21
137.55,-0.091,0.249,3.868,7.348,77,11.23,36.21
137.61,0.142,0.601,3.879,7.335,77,11.23,36.25
137.68,0.002,0.477,3.889,7.325,77,11.23,36.25
137.74,-0.04,0.228,3.897,7.309,77,11.23,36.23
137.81,0.008,0.249,3.905,7.286,79,11.23,36.2
137.87,0.123,0.249,3.912,7.272,79,11.23,36.2
137.94,0.092,0.249,3.92,7.266,79,11.23,36.21
138.0,-0.052,0.249,3.927,7.26,79,11.23,36.21
138.06,-0.044,0.228,3.945,7.247,79,11.23,36.2
138.13,-0.043,0.269,3.96,7.245,79,11.23,36.14
138.19,-0.038,0.228,3.966,7.243,79,11.23,36.1
138.26,-0.033,0.207,3.971,7.234,79,11.23,36.1
138.32,-0.082,0.249,3.975,7.226,79,11.23,36.11
138.39,0.22,0.746,3.979,7.214,79,11.23,36.11
138.45,-0.051,0.394,3.983,7.205,79,11.24,36.11
138.52,-0.025,0.249,3.988,7.199,79,11.23,36.1
138.58,0.036,0.228,3.993,7.197,78,11.23,36.12
138.65,0.159,0.207,3.999,7.201,78,11.23,36.11
138.71,0.05,0.249,4.006,7.213,78,11.23,36.12
138.77,-0.044,0.269,4.008,7.221,78,11.23,36.14
138.84,-0.033,0.269,4.013,7.238,78,11.23,36.16
138.9,-0.039,0.311,4.016,7.265,78,11.23,36.15
138.97,-0.046,0.352,4.02,7.292,78,11.23,36.14
139.03,-0.015,0.249,4.023,7.324,78,11.23,36.17
139.1,-0.076,0.311,4.031,7.364,78,11.23,36.23
139.16,0.182,0.622,4.038,7.419,78,11.23,36.3
139.23,-0.017,0.58,4.046,7.465,78,11.23,36.38
139.29,-0.027,0.228,4.054,7.507,78,11.23,36.46
139.35,0.021,0.249,4.065,7.55,76,11.23,36.53
139.42,0.135,0.249,4.078,7.589,76,11.23,36.61
139.48,0.095,0.269,4.094,7.639,76,11.23,36.7
139.55,-0.045,0.249,4.113,7.681,76,11.23,36.79
139.61,-0.033,0.249,4.136,7.711,76,11.23,36.89
139.68,-0.031,0.228,4.165,7.73,76,11.23,36.93
139.74,-0.004,0.228,4.19,7.747,76,11.23,36.97
139.81,-0.044,0.207,4.211,7.773,76,11.23,37.06
139.87,-0.07,0.394,4.23,7.792,76,11.23,37.13
139.94,0.245,0.767,4.249,7.812,76,11.23,37.24
140.0,-0.014,0.269,4.269,7.839,76,11.23,37.33
140.06,0.024,0.249,4.298,7.869,76,11.23,37.41
140.13,0.105,0.269,4.335,7.882,76,11.23,37.51
140.19,0.185,0.249,4.366,7.887,76,11.23,37.62
140.26,0.017,0.249,4.396,7.883,76,11.23,37.74
140.32,-0.005,0.249,4.422,7.863,80,11.23,37.85
140.39,0.008,0.269,4.451,7.873,80,11.23,37.95
140.45,0.037,0.249,4.47,7.857,80,11.23,38.05
140.52,-0.014,0.269,4.488,7.843,80,11.23,38.16
140.58,-0.037,0.352,4.505,7.834,80,11.23,38.27
140.65,-0.020455223880597014,0.704,4.525,7.812,80,11.24,38.36
140.71,0.011,0.228,4.551,7.784,80,11.23,38.43
140.77,0.048,0.269,4.575,7.76,80,11.23,38.47
140.84,0.129,0.269,4.59,7.736,80,11.23,38.53
140.9,0.19,0.207,4.605,7.715,80,11.23,38.57
140.97,0.011,0.249,4.62,7.71,80,11.23,38.59
141.03,-0.004,0.249,4.643,7.694,84,11.23,38.6
141.1,0.011,0.228,4.677,7.678,84,11.23,38.56
141.16,0.034,0.228,4.702,7.664,84,11.23,38.5
141.23,-0.039,0.249,4.717,7.665,84,11.23,38.46
141.29,0.037,0.497,4.732,7.653,84,11.23,38.4
141.35,0.188,0.663,4.742,7.634,84,11.23,38.33
141.42,-0.015,0.249,4.752,7.617,84,11.23,38.25
141.48,0.025,0.228,4.767,7.599,84,11.23,38.16
141.55,0.125,0.207,4.784,7.587,86,11.23,38.06
141.61,0.125,0.228,4.796,7.577,86,11.23,37.96
141.68,-0.039,0.228,4.811,7.568,86,11.23,37.89
141.74,-0.038,0.207,4.825,7.559,86,11.23,37.79
141.81,-0.032,0.249,4.845,7.551,86,11.23,37.69
141.87,-0.046,0.228,4.87,7.55,86,11.23,37.58
141.94,-0.013,0.249,4.882,7.546,86,11.23,37.49
142.0,-0.075,0.207,4.891,7.545,86,11.23,37.41
142.06,-0.009,0.477,4.897,7.543,86,11.23,37.35
142.13,0.173,0.601,4.901,7.545,86,11.23,37.29
142.19,-0.043,0.228,4.907,7.547,86,11.23,37.2
142.26,-0.006,0.29,4.914,7.56,86,11.23,37.15
142.32,0.095,0.249,4.924,7.568,77,11.23,37.13
142.39,0.124,0.249,4.931,7.567,77,11.23,37.1
142.45,-0.051,0.269,4.936,7.566,77,11.23,37.06
142.52,-0.054,0.228,4.941,7.565,77,11.23,37.01
142.58,-0.046,0.249,4.946,7.565,77,11.23,36.94
142.65,-0.058,0.249,4.952,7.567,77,11.23,36.88
142.71,-0.066,0.228,4.958,7.566,77,11.23,36.86
142.77,-0.048,0.249,4.963,7.565,77,11.23,36.82
142.84,-0.059,0.207,4.975,7.566,77,11.23,36.81
142.9,-0.086,0.331,4.99,7.563,77,11.23,36.79
142.97,0.24,0.704,5.0,7.558,77,11.23,36.76
143.03,-0.038,0.29,5.006,7.555,77,11.23,36.74
143.1,-0.016,0.249,5.013,7.551,77,11.23,36.74
143.16,0.057,0.249,5.018,7.554,69,11.23,36.71
143.23,0.173,0.228,5.025,7.552,69,11.23,36.71
143.29,0.009,0.249,5.03,7.546,69,11.23,36.71
143.35,-0.045,0.249,5.039,7.537,69,11.23,36.71
143.42,-0.032,0.228,5.046,7.527,69,11.23,36.7
143.48,-0.04,0.207,5.052,7.517,69,11.23,36.63
143.55,-0.054,0.186,5.057,7.51,69,11.23,36.6
143.61,-0.059,0.249,5.062,7.5,69,11.23,36.59
143.68,-0.056,0.228,5.071,7.494,69,11.23,36.59
143.74,-0.028,0.269,5.077,7.487,69,11.23,36.57
143.81,-0.064,0.269,5.082,7.48,69,11.23,36.57
143.87,-0.044,0.394,5.09,7.472,69,11.23,36.56
143.94,0.228,0.663,5.095,7.464,69,11.23,36.58
144.0,-0.027,0.228,5.097,7.455,69,11.24,36.58
144.06,0.003,0.249,5.1,7.447,69,11.23,36.58
144.13,0.097,0.269,5.102,7.439,63,11.23,36.58
144.19,0.173,0.249,5.105,7.431,63,11.23,36.59
144.26,-0.021,0.228,5.112,7.424,63,11.23,36.61
144.32,-0.043,0.186,5.12,7.417,63,11.24,36.62
144.39,-0.033,0.228,5.126,7.412,63,11.23,36.61
144.45,-0.044,0.249,5.133,7.407,63,11.23,36.56
144.52,-0.052,0.228,5.137,7.4,63,11.23,36.58
144.58,-0.053,0.269,5.142,7.396,63,11.23,36.61
144.65,-0.052,0.228,5.144,7.392,63,11.23,36.67
144.71,-0.013,0.207,5.148,7.387,63,11.23,36.7
144.77,-0.056,0.207,5.152,7.379,63,11.23,36.75
144.84,0.218,0.601,5.157,7.373,63,11.23,36.79
144.9,0.009,0.477,5.159,7.365,63,11.23,36.84
144.97,-0.004,0.228,5.167,7.358,63,11.23,36.89
145.03,0.042,0.269,5.174,7.348,63,11.23,36.96
145.1,0.161,0.249,5.179,7.339,63,11.23,37.01
145.16,0.128,0.249,5.184,7.331,63,11.23,37.06
145.23,-0.034,0.249,5.188,7.321,63,11.23,37.12
145.29,-0.027,0.249,5.191,7.311,63,11.23,37.17
145.35,-0.022,0.269,5.191,7.302,63,11.23,37.18
145.42,-0.033,0.269,5.189,7.292,63,11.23,37.19
145.48,-0.037,0.228,5.188,7.281,63,11.23,37.25
145.55,-0.005,0.269,5.188,7.273,63,11.23,37.31
145.61,-0.053,0.249,5.187,7.263,63,11.23,37.38
145.68,0.197,0.663,5.188,7.255,63,11.23,37.44
145.74,0.03,0.642,5.186,7.244,63,11.23,37.5
145.81,0.007,0.311,5.186,7.236,63,11.23,37.58
145.87,0.054,0.207,5.183,7.228,63,11.23,37.64
145.94,0.173,0.207,5.183,7.219,63,11.23,37.72
146.0,0.141,0.269,5.183,7.211,63,11.23,37.78
146.06,-0.018,0.228,5.183,7.203,71,11.23,37.84
146.13,-0.011,0.269,5.183,7.195,71,11.23,37.87
146.19,-0.009,0.207,5.183,7.19,71,11.26,37.84
146.26,-0.021,0.228,5.183,7.184,71,11.17,37.82
146.32,0.006,0.249,5.186,7.174,71,11.21,37.82
146.39,-0.048,0.249,5.186,7.168,71,11.21,37.81
146.45,0.07,0.58,5.186,7.16,71,11.12,37.87
146.52,0.155,0.663,5.184,7.153,71,11.05,37.87
146.58,-0.003,0.249,5.183,7.146,71,11.16,37.86
146.65,0.044,0.207,5.182,7.137,76,11.1,37.9
146.71,0.154,0.269,5.184,7.131,76,11.12,37.9
146.77,0.158,0.249,5.186,7.123,76,11.18,37.91
146.84,-0.023,0.207,5.186,7.117,76,11.23,37.92
146.9,-0.027,0.228,5.184,7.115,76,11.35,37.97
146.97,-0.019,0.228,5.183,7.108,76,11.33,37.96
147.03,0.008,0.249,5.181,7.101,76,11.35,37.91
147.1,-0.061,0.186,5.178,7.092,76,11.64,37.85
147.16,-0.024,0.435,5.178,7.086,76,12.11,37.78
147.23,0.203,0.684,5.177,7.079,76,13.15,37.75
147.29,-0.035,0.269,5.176,7.073,76,13.08,37.73
147.35,0.001,0.207,5.174,7.066,76,12.28,37.69
147.42,0.106,0.228,5.173,7.059,83,11.99,37.64
147.48,0.146,0.249,5.171,7.051,83,11.76,37.58
147.55,-0.036,0.249,5.168,7.046,83,11.72,37.51
147.61,-0.043,0.269,5.168,7.04,83,12.01,37.45
147.68,-0.014,0.249,5.166,7.034,83,12.26,37.36
147.74,-0.029,0.311,5.166,7.029,83,12.14,37.26
147.81,-0.082,0.249,5.163,7.022,83,12.44,37.17
147.87,0.216,0.684,5.163,7.018,83,12.6,37.12
147.94,-0.058,0.331,5.163,7.014,83,12.51,37.05
148.0,-0.038,0.249,5.164,7.01,83,12.36,36.99
148.06,0.022,0.269,5.167,7.008,88,12.36,36.94
148.13,0.145,0.249,5.168,7.005,88,12.53,36.88
148.19,0.018,0.207,5.171,7.001,88,12.59,36.84
148.26,-0.058,0.249,5.174,6.996,88,12.51,36.8
148.32,-0.042,0.269,5.177,6.993,88,12.56,36.76
148.39,-0.041,0.249,5.179,6.986,88,12.54,36.65
148.45,-0.033,0.228,5.179,6.981,88,12.56,36.59
148.52,-0.099,0.249,5.178,6.975,88,12.61,36.57
148.58,0.115,0.663,5.176,6.969,88,12.61,36.57
148.65,0.02,0.477,5.174,6.964,88,12.65,36.54
148.71,-0.052,0.207,5.173,6.959,88,12.66,36.52
148.77,-0.008,0.228,5.171,6.952,81,12.69,36.48
148.84,0.109,0.311,5.171,6.947,81,12.62,36.48
148.9,0.084,0.228,5.171,6.939,81,12.73,36.47
148.97,-0.068,0.249,5.171,6.934,81,12.64,36.48
149.03,-0.063,0.29,5.172,6.927,81,12.54,36.49
149.1,-0.063,0.249,5.177,6.92,81,12.4,36.47
149.16,-0.074,0.228,5.178,6.914,81,12.38,36.44
149.23,-0.042,0.269,5.178,6.907,81,12.17,36.42
149.29,-0.104,0.228,5.178,6.9,81,12.11,36.43
149.35,0.067,0.642,5.178,6.894,81,12.03,36.43
149.42,0.048,0.58,5.178,6.89,81,11.6,36.44
149.48,-0.057,0.249,5.176,6.882,81,11.35,36.47
149.55,-0.016,0.249,5.176,6.877,77,11.32,36.49
149.61,0.094,0.373,5.173,6.87,77,11.33,36.48
149.68,0.094,0.269,5.171,6.865,77,11.51,36.49
149.74,-0.064,0.311,5.171,6.86,77,11.56,36.47
149.81,-0.06,0.29,5.168,6.855,77,11.57,36.5
149.87,-0.058,0.331,5.171,6.85,77,11.46,36.52
149.94,-0.071,0.269,5.171,6.845,77,11.4,36.52
150.0,-0.04,0.249,5.171,6.84,77,11.57,36.59
150.06,-0.094,0.29,5.173,6.835,77,11.67,36.65
150.13,0.002,0.539,5.174,6.831,77,11.56,36.71
150.19,0.123,0.559,5.173,6.827,77,11.53,36.76
150.26,-0.052,0.228,5.173,6.822,77,11.18,36.85
150.32,-0.012,0.249,5.173,6.82,77,11.32,36.96
150.39,0.09,0.249,5.171,6.817,76,12.09,37.07
150.45,0.11,0.249,5.168,6.814,76,12.18,37.13
150.52,-0.06,0.228,5.167,6.81,76,12.45,37.17
150.58,-0.055,0.29,5.166,6.805,76,12.04,37.24
150.65,-0.046,0.269,5.163,6.803,76,11.15,37.28
150.71,-0.035,0.249,5.161,6.798,76,11.01,37.34
150.77,-0.044,0.269,5.158,6.793,76,11.01,37.42
150.84,-0.082,0.29,5.158,6.788,76,11.01,37.5
150.9,0.224,0.746,5.156,6.783,76,11.15,37.57
150.97,-0.045,0.352,5.153,6.778,76,11.31,37.62
151.03,-0.011,0.29,5.152,6.773,76,11.33,37.68
151.1,0.052,0.269,5.149,6.768,80,11.54,37.74
151.16,0.159,0.311,5.147,6.763,80,11.64,37.81
151.23,0.02,0.207,5.144,6.758,80,11.76,37.88
151.29,-0.046,0.311,5.142,6.754,80,11.88,37.92
151.35,-0.03,0.269,5.141,6.75,80,11.9,37.93
151.42,-0.036,0.269,5.138,6.749,80,11.96,37.92
151.48,-0.01,0.269,5.137,6.745,80,12.06,37.94
151.55,-0.08,0.186,5.136,6.74,80,12.01,37.97
151.61,0.002,0.518,5.136,6.735,80,11.95,37.96
151.68,0.152,0.642,5.133,6.73,80,11.96,37.93
151.74,-0.045,0.228,5.133,6.725,80,12.01,37.86
151.81,-0.003,0.207,5.131,6.72,80,12.01,37.8
151.87,0.096,0.269,5.131,6.717,80,11.99,37.75
151.94,0.105,0.269,5.128,6.713,80,12.03,37.7
152.0,-0.059,0.269,5.128,6.711,80,11.98,37.66
152.06,-0.055,0.29,5.128,6.707,80,12.03,37.63
152.13,-0.047,0.228,5.128,6.705,80,12.05,37.56
152.19,-0.03,0.311,5.133,6.705,80,12.07,37.48
152.26,-0.036,0.311,5.136,6.706,80,12.06,37.43
152.32,-0.088,0.29,5.133,6.708,80,11.98,37.39
152.39,0.03,0.539,5.134,6.714,80,11.83,37.37
152.45,0.118,0.622,5.133,6.721,80,11.71,37.33
152.52,-0.05,0.249,5.134,6.741,80,11.77,37.27
152.58,-0.011,0.207,5.134,6.743,78,11.89,37.26
152.65,0.095,0.269,5.133,6.753,78,11.89,37.24
152.71,0.101,0.311,5.133,6.764,78,11.92,37.21
152.77,-0.067,0.207,5.132,6.774,78,11.78,37.19
152.84,-0.067,0.249,5.132,6.785,78,11.61,37.17
152.9,-0.06,0.207,5.131,6.794,78,11.39,37.11
152.97,-0.074,0.249,5.131,6.804,78,11.05,37.02
153.03,-0.068,0.29,5.131,6.81,78,11.09,36.97
153.1,-0.064,0.207,5.131,6.815,78,11.2,36.95
153.16,-0.106,0.249,5.131,6.82,78,11.31,36.92
153.23,0.206,0.746,5.131,6.824,78,11.15,36.91
153.29,-0.07,0.249,5.128,6.826,78,11.23,36.88
153.35,-0.051,0.207,5.131,6.826,78,11.46,36.88
153.42,0.01,0.249,5.131,6.826,73,11.21,36.87
153.48,0.136,0.29,5.132,6.826,73,11.16,36.87
153.55,0.008,0.269,5.131,6.824,73,11.05,36.86
153.61,-0.077,0.29,5.132,6.822,73,10.95,36.85
153.68,-0.064,0.228,5.132,6.817,73,10.89,36.84
153.74,-0.066,0.29,5.131,6.812,73,10.85,36.79
153.81,-0.08,0.249,5.131,6.807,73,10.83,36.73
153.87,-0.081,0.269,5.131,6.8,73,10.83,36.67
153.94,-0.057,0.207,5.131,6.794,73,10.83,36.63
154.0,-0.104,0.269,5.131,6.788,73,10.83,36.59
154.06,0.202,0.684,5.131,6.78,73,10.84,36.54
154.13,-0.067,0.518,5.131,6.773,73,10.82,36.51
154.19,-0.051,0.228,5.131,6.764,73,10.82,36.49
154.26,0.0,0.269,5.129,6.756,70,10.83,36.47
154.32,0.129,0.269,5.131,6.746,70,10.83,36.45
154.39,0.051,0.29,5.131,6.739,70,10.84,36.43
154.45,-0.074,0.269,5.129,6.73,70,10.85,36.42
154.52,-0.067,0.269,5.128,6.723,70,10.87,36.43
154.58,-0.069,0.311,5.128,6.716,70,10.88,36.37
154.65,-0.079,0.29,5.126,6.707,70,10.85,36.32
154.71,-0.084,0.269,5.127,6.697,70,10.94,36.3
154.77,-0.052,0.249,5.127,6.688,70,11.13,36.3
154.84,-0.105,0.228,5.128,6.681,70,11.34,36.3
154.9,0.127,0.622,5.129,6.673,70,11.95,36.3
154.97,-0.001,0.497,5.128,6.667,70,13.58,36.3
155.03,-0.055,0.269,5.127,6.661,70,13.611379310344828,36.32
155.1,-0.012,0.249,5.126,6.653,70,13.642758620689655,36.35
155.16,0.106,0.249,5.124,6.648,70,13.674137931034483,36.36
155.23,0.086,0.228,5.122,6.641,70,13.70551724137931,36.37
155.29,-0.074,0.269,5.12,6.634,70,13.736896551724138,36.37
155.35,-0.069,0.249,5.119,6.628,70,13.768275862068966,36.41
155.42,-0.064,0.249,5.121,6.622,70,13.799655172413793,36.38
155.48,-0.074,0.228,5.121,6.616,70,13.831034482758621,36.37
155.55,-0.082,0.311,5.121,6.61,70,13.862413793103448,36.37
155.61,-0.064,0.207,5.121,6.604,70,13.893793103448276,36.42
155.68,-0.069,0.352,5.12,6.597,70,13.925172413793103,36.46
155.74,-0.1,0.249,5.119,6.591,70,13.956551724137931,36.5
155.81,0.218,0.808,5.117,6.586,70,13.98793103448276,36.55
155.87,-0.048,0.311,5.115,6.581,70,14.019310344827586,36.63
155.94,-0.023,0.249,5.112,6.576,70,14.050689655172414,36.69
156.0,0.047,0.269,5.109,6.569,68,14.08206896551724,36.76
156.06,0.162,0.29,5.107,6.564,68,14.11344827586207,36.84
156.13,-0.002,0.249,5.105,6.559,68,14.144827586206898,36.9
156.19,-0.064,0.249,5.101,6.554,68,14.176206896551724,36.97
156.26,-0.049,0.29,5.1,6.547,68,14.207586206896552,37.02
156.32,-0.057,0.249,5.097,6.541,68,14.238965517241379,37.03
156.39,-0.066,0.228,5.096,6.535,68,14.270344827586207,37.06
156.45,-0.036,0.249,5.095,6.529,68,14.301724137931036,37.11
156.52,-0.079,0.249,5.092,6.524,68,14.333103448275862,37.17
156.58,-0.022,0.539,5.09,6.519,68,14.36448275862069,37.24
156.65,0.171,0.58,5.086,6.514,68,14.395862068965517,37.3
156.71,0.002,0.269,5.085,6.509,68,14.427241379310345,37.36
156.77,0.026,0.269,5.082,6.504,68,14.458620689655172,37.44
156.84,0.109,0.228,5.08,6.499,68,14.49,37.5
156.9,0.142,0.228,5.076,6.494,68,14.47,37.57
156.97,-0.038,0.228,5.073,6.489,68,14.39,37.62
157.03,-0.044,0.249,5.067,6.48,73,14.38,37.68
157.1,-0.038,0.249,5.069,6.479,73,14.31,37.68
157.16,-0.05,0.228,5.066,6.474,73,14.28,37.69
157.23,-0.025,0.311,5.062,6.469,73,14.25,37.71
157.29,-0.079,0.269,5.061,6.464,73,14.32,37.73
157.35,0.173,0.642,5.059,6.459,73,14.28,37.73
157.42,-0.001,0.518,5.056,6.454,73,14.22,37.71
157.48,-0.03,0.311,5.054,6.45,73,14.13,37.69
157.55,0.014,0.228,5.052,6.447,79,13.86,37.65
157.61,0.124,0.311,5.049,6.442,79,13.88,37.62
157.68,0.082,0.29,5.046,6.437,79,13.86,37.59
157.74,-0.065,0.29,5.045,6.435,79,13.8,37.56
157.81,-0.056,0.249,5.044,6.431,79,13.72,37.53
157.87,-0.055,0.249,5.041,6.427,79,13.72,37.46
157.94,-0.063,0.29,5.039,6.425,79,13.67,37.38
158.0,-0.05,0.269,5.038,6.421,79,13.66,37.34
158.06,-0.097,0.207,5.034,6.42,79,13.58,37.3
158.13,0.219,0.704,5.032,6.421,79,13.53,37.26
158.19,-0.065,0.414,5.03,6.421,79,13.52,37.22
158.26,-0.045,0.29,5.028,6.42,79,13.56,37.16
158.32,0.013,0.269,5.025,6.419,78,13.6,37.11
158.39,0.134,0.249,5.023,6.419,78,13.49,37.05
158.45,0.019,0.269,5.022,6.419,78,13.48,37.0
158.52,-0.078,0.269,5.019,6.419,78,13.49,36.94
158.58,-0.068,0.331,5.019,6.42,78,13.45,36.89
158.65,-0.07,0.29,5.017,6.421,78,13.43,36.79
158.71,-0.081,0.269,5.017,6.421,78,13.43,36.72
158.77,-0.054,0.249,5.017,6.421,78,13.41,36.67
158.84,-0.11,0.249,5.017,6.422,78,13.39,36.64
158.9,0.174,0.601,5.017,6.421,78,13.37,36.61
158.97,-0.058,0.518,5.018,6.421,78,13.36,36.59
159.03,-0.059,0.207,5.018,6.42,78,13.33,36.57
159.1,-0.009,0.331,5.017,6.416,76,13.32,36.57
159.16,0.112,0.269,5.017,6.414,76,13.31,36.54
159.23,0.057,0.311,5.017,6.41,76,13.28,36.53
159.29,-0.078,0.269,5.017,6.402,76,13.27,36.51
159.35,-0.066,0.269,5.017,6.4,76,13.26,36.49
159.42,-0.072,0.228,5.017,6.397,76,13.25,36.45
159.48,-0.078,0.228,5.017,6.392,76,13.23,36.38
159.55,-0.055,0.29,5.014,6.387,76,13.22,36.37
159.61,-0.082,0.249,5.015,6.382,76,13.21,36.36
159.68,-0.102,0.414,5.014,6.376,76,13.2,36.36
159.74,0.219,0.684,5.015,6.366,76,13.2,36.36
159.81,-0.056,0.311,5.015,6.366,76,13.19,36.36
159.87,-0.029,0.331,5.013,6.36,76,13.17,36.37
159.94,0.054,0.352,5.012,6.355,74,13.16,36.38
160.0,0.153,0.331,5.012,6.35,74,13.15,36.39
160.06,-0.029,0.249,5.012,6.345,74,13.15,36.4
160.13,-0.061,0.269,5.012,6.34,74,13.14,36.42
160.19,-0.049,0.249,5.009,6.333,74,13.12,36.42
160.26,-0.056,0.269,5.009,6.33,74,13.11,36.39
160.32,-0.065,0.269,5.007,6.324,74,13.1,36.38
160.39,-0.033,0.249,5.005,6.318,74,13.1,36.43
160.45,-0.084,0.269,5.004,6.313,74,13.09,36.47
160.52,0.187,0.725,5.002,6.31,74,13.08,36.51
160.58,-0.026,0.601,5.0,6.305,74,13.06,36.54
160.65,-0.033,0.29,4.997,6.3,74,13.06,36.58
160.71,0.013,0.249,4.995,6.294,74,13.05,36.65
160.77,0.13,0.249,4.993,6.29,74,13.05,36.72
160.84,0.085,0.29,4.992,6.285,74,13.04,36.78
160.9,-0.056,0.29,4.989,6.28,74,13.03,36.84
160.97,-0.045,0.331,4.987,6.275,74,13.01,36.92
161.03,-0.042,0.331,4.984,6.271,74,13.01,36.95
161.1,-0.052,0.29,4.98,6.266,74,13.0,36.98
161.16,-0.027,0.249,4.979,6.259,74,13.0,37.05
161.23,-0.078,0.249,4.977,6.254,74,12.99,37.12
161.29,0.22,0.787,4.977,6.25,74,12.99,37.2
161.35,-0.044,0.456,4.974,6.246,74,12.98,37.29
161.42,-0.015,0.249,4.972,6.241,74,12.98,37.36
161.48,0.131,0.311,4.969,6.236,78,12.97,37.43
161.55,0.172,0.331,4.967,6.232,78,12.97,37.51
161.61,0.076,0.269,4.964,6.226,78,12.95,37.58
161.68,-0.041,0.269,4.963,6.223,78,12.95,37.66
161.74,-0.025,0.269,4.959,6.218,78,12.94,37.71
161.81,-0.026,0.29,4.952,6.209,78,12.93,37.77
161.87,0.0,0.352,4.954,6.21,78,12.93,37.76
161.94,-0.05,0.269,4.952,6.203,78,12.93,37.81
162.0,-0.07,0.352,4.95,6.198,78,12.92,37.86
162.06,0.252,0.746,4.946,6.196,78,12.92,37.91
162.13,-0.025,0.269,4.943,6.191,78,12.9,37.93
162.19,0.009,0.269,4.94,6.186,78,12.9,37.97
162.26,0.092,0.29,4.938,6.181,78,12.9,38.0
162.32,0.158,0.249,4.935,6.179,78,12.89,38.02
162.39,-0.019,0.249,4.932,6.174,78,12.89,38.04
162.45,-0.04,0.269,4.93,6.171,80,12.88,38.04
162.52,-0.028,0.311,4.928,6.168,80,12.88,37.99
162.58,-0.028,0.29,4.925,6.164,80,12.87,37.93
162.65,-0.018,0.311,4.922,6.161,80,12.87,37.93
162.71,-0.077,0.311,4.92,6.159,80,12.86,37.89
162.77,0.217,0.684,4.918,6.158,80,12.86,37.87
162.84,-0.032,0.58,4.916,6.155,80,12.86,37.81
162.9,-0.031,0.269,4.915,6.155,80,12.86,37.75
162.97,0.017,0.269,4.913,6.155,80,12.84,37.71
163.03,0.13,0.269,4.911,6.158,80,12.84,37.68
163.1,0.062,0.269,4.91,6.158,80,12.83,37.64
163.16,-0.065,0.311,4.907,6.16,80,12.83,37.59
163.23,-0.054,0.311,4.906,6.161,80,12.83,37.56
163.29,-0.05,0.29,4.905,6.163,80,12.82,37.49
163.35,-0.064,0.29,4.902,6.163,80,12.82,37.42
163.42,-0.068,0.311,4.901,6.163,80,12.82,37.39
163.48,-0.045,0.311,4.9,6.163,80,12.81,37.36
163.55,-0.092,0.249,4.898,6.163,80,12.81,37.33
163.61,0.209,0.601,4.897,6.16,80,12.81,37.29
163.68,-0.05,0.559,4.897,6.16,80,12.81,37.25
163.74,-0.044,0.29,4.897,6.158,80,12.8,37.2
163.81,0.003,0.228,4.897,6.156,71,12.8,37.15
163.87,0.123,0.311,4.896,6.154,71,12.8,37.1
163.94,0.057,0.331,4.895,6.151,71,12.78,37.05
164.0,-0.08,0.269,4.895,6.149,71,12.78,37.0
164.06,-0.073,0.228,4.895,6.146,71,12.78,36.95
164.13,-0.071,0.311,4.895,6.141,71,12.77,36.84
164.19,-0.085,0.249,4.895,6.136,71,12.77,36.73
164.26,-0.09,0.207,4.895,6.131,71,12.77,36.64
164.32,-0.058,0.269,4.895,6.126,71,12.77,36.6
164.39,-0.108,0.249,4.895,6.121,71,12.76,36.58
164.45,0.097,0.601,4.893,6.118,71,12.76,36.53
164.52,0.024,0.58,4.892,6.111,71,12.76,36.52
164.58,-0.06,0.394,4.892,6.106,71,12.76,36.5
164.65,-0.018,0.29,4.891,6.101,70,12.76,36.49
164.71,0.097,0.249,4.888,6.097,70,12.75,36.49
164.77,0.088,0.269,4.887,6.092,70,12.75,36.49
164.84,-0.076,0.29,4.885,6.087,70,12.75,36.49
164.9,-0.072,0.249,4.885,6.082,70,12.75,36.5
164.97,-0.067,0.29,4.882,6.078,70,12.73,36.47
165.03,-0.079,0.269,4.882,6.074,70,12.73,36.42
165.1,-0.084,0.269,4.88,6.067,70,12.73,36.42
165.16,-0.077,0.249,4.877,6.062,70,12.73,36.43
165.23,-0.059,0.269,4.877,6.057,70,12.73,36.44
165.29,-0.099,0.269,4.875,6.053,70,12.72,36.45
165.35,0.215,0.684,4.873,6.047,70,12.72,36.46
165.42,-0.059,0.331,4.871,6.042,70,12.72,36.49
165.48,-0.036,0.228,4.87,6.039,70,12.71,36.52
165.55,0.023,0.311,4.867,6.034,68,12.71,36.55
165.61,0.153,0.311,4.865,6.029,68,12.71,36.61
165.68,0.04,0.311,4.863,6.024,68,12.71,36.65
165.74,-0.065,0.269,4.861,6.022,68,12.71,36.71
165.81,-0.052,0.249,4.86,6.017,68,12.71,36.76
165.87,-0.051,0.269,4.856,6.013,68,12.7,36.76
165.94,-0.06,0.269,4.854,6.01,68,12.7,36.77
166.0,-0.061,0.29,4.851,6.004,68,12.7,36.85
166.06,-0.034,0.269,4.849,6.0,68,12.7,36.94
166.13,-0.082,0.29,4.848,5.995,68,12.7,37.02
166.19,0.224,0.642,4.845,5.992,68,12.69,37.1
166.26,-0.053,0.414,4.844,5.987,68,12.69,37.17
166.32,-0.023,0.269,4.84,5.984,68,12.69,37.27
166.39,0.03,0.373,4.839,5.98,70,12.69,37.33
166.45,0.154,0.269,4.838,5.977,70,12.69,37.4
166.52,0.073,0.311,4.835,5.974,70,12.67,37.47
166.58,-0.049,0.311,4.833,5.97,70,12.67,37.53
166.65,-0.032,0.29,4.83,5.966,70,12.67,37.59
166.71,-0.031,0.331,4.828,5.962,70,12.67,37.62
166.77,-0.041,0.29,4.826,5.96,70,12.67,37.69
166.84,-0.018,0.269,4.825,5.955,70,12.67,37.77
166.9,-0.069,0.331,4.825,5.951,70,12.66,37.81
166.97,0.23,0.684,4.825,5.947,70,12.66,37.87
167.03,-0.035,0.497,4.824,5.944,70,12.66,37.9
167.1,-0.014,0.29,4.823,5.941,70,12.66,37.9
167.16,0.034,0.269,4.824,5.937,76,12.66,37.91
167.23,0.15,0.311,4.826,5.935,76,12.66,37.89
167.29,0.077,0.207,4.831,5.932,76,12.66,37.87
167.35,-0.05,0.29,4.835,5.931,76,12.65,37.82
167.42,-0.037,0.331,4.835,5.93,76,12.65,37.8
167.48,-0.042,0.29,4.833,5.927,76,12.65,37.71
167.55,-0.035,0.29,4.83,5.925,76,12.65,37.67
167.61,-0.022,0.29,4.829,5.92,76,12.65,37.65
167.68,-0.082,0.269,4.828,5.915,76,12.65,37.6
167.74,0.221,0.684,4.826,5.914,76,12.65,37.59
167.81,-0.045,0.497,4.823,5.906,76,12.64,37.54
167.87,-0.031,0.331,4.823,5.905,76,12.64,37.53
167.94,0.018,0.228,4.823,5.903,77,12.64,37.51
168.0,0.135,0.249,4.82,5.9,77,12.64,37.49
168.06,0.066,0.269,4.819,5.899,77,12.64,37.45
168.13,-0.066,0.269,4.818,5.897,77,12.62,37.43
168.19,-0.053,0.269,4.815,5.895,77,12.62,37.41
168.26,-0.049,0.269,4.815,5.894,77,12.62,37.33
